10.003433220 22733.0
10.014299660 22640.0
10.025166100 22303.0
10.036032540 22513.0
10.046898980 22337.0
10.057765420 22423.0
10.068631860 22495.0
10.079498300 22392.0
10.090364740 22331.0
10.101231180 22303.0
10.112097620 22317.0
10.122964060 22416.0
10.133830500 22766.0
10.144696940 22544.0
10.155563380 22093.0
10.166429820 22506.0
10.177296260 22205.0
10.188162700 22552.0
10.199029140 22160.0
10.209895580 22423.0
10.220762020 22203.0
10.231628460 22575.0
10.242494900 22140.0
10.253361340 22500.0
10.264227780 22304.0
10.275094220 22320.0
10.285960660 22277.0
10.296827100 22381.0
10.307693540 22078.0
10.318559980 22369.0
10.329426420 22090.0
10.340292860 22513.0
10.351159300 22367.0
10.362025740 22202.0
10.372892180 22007.0
10.383758620 22000.0
10.394625060 22137.0
10.405491500 22246.0
10.416357940 22051.0
10.427224380 22225.0
10.438090820 21756.0
10.448957260 22255.0
10.459823700 22103.0
10.470690140 22183.0
10.481556580 22141.0
10.492423020 22139.0
10.503289460 22116.0
10.514155900 22117.0
10.525022340 21965.0
10.535888780 21698.0
10.546755220 22372.0
10.557621660 22168.0
10.568488100 21942.0
10.579354540 21836.0
10.590220980 22349.0
10.601087420 21933.0
10.611953860 21759.0
10.622820300 22112.0
10.633686740 22100.0
10.644553180 21979.0
10.655419620 21879.0
10.666286060 22032.0
10.677152500 21851.0
10.688018940 22046.0
10.698885380 21994.0
10.709751820 22054.0
10.720618260 21701.0
10.731484700 22047.0
10.742351140 21634.0
10.753217580 21796.0
10.764084020 21753.0
10.774950460 22062.0
10.785816900 21658.0
10.796683340 21947.0
10.807549780 21835.0
10.818416220 21695.0
10.829282660 21942.0
10.840149100 21855.0
10.851015540 21703.0
10.861881980 21965.0
10.872748420 21588.0
10.883614860 21957.0
10.894481300 21804.0
10.905347740 21934.0
10.916214180 21704.0
10.927080620 21722.0
10.937947060 21792.0
10.948813500 21871.0
10.959679940 21957.0
10.970546380 21921.0
10.981412820 21942.0
10.992279260 21916.0
11.003145700 21944.0
11.014012140 21874.0
11.024878580 21902.0
11.035745020 22018.0
11.046611460 22108.0
11.057477900 22111.0
11.068344340 22089.0
11.079210780 22106.0
11.090077220 22229.0
11.100943660 22257.0
11.111810100 22011.0
11.122676540 22163.0
11.133542980 22152.0
11.144409420 22210.0
11.155275860 22230.0
11.166142300 22401.0
11.177008740 22533.0
11.187875180 22691.0
11.198741620 22707.0
11.209608060 22567.0
11.220474500 22875.0
11.231340940 23519.0
11.242207380 23259.0
11.253073820 23568.0
11.263940260 23942.0
11.274806700 23779.0
11.285673140 24576.0
11.296539580 24792.0
11.307406020 24763.0
11.318272460 24822.0
11.329138900 25551.0
11.340005340 25984.0
11.350871780 26185.0
11.361738220 26225.0
11.372604660 26297.0
11.383471100 26418.0
11.394337540 25870.0
11.405203980 25446.0
11.416070420 24178.0
11.426936860 23661.0
11.437803300 23037.0
11.448669740 22319.0
11.459536180 21720.0
11.470402620 21915.0
11.481269060 21420.0
11.492135500 21696.0
11.503001940 21382.0
11.513868380 21305.0
11.524734820 21012.0
11.535601260 21439.0
11.546467700 21535.0
11.557334140 21434.0
11.568200580 21146.0
11.579067020 21419.0
11.589933460 21625.0
11.600799900 21172.0
11.611666340 21518.0
11.622532780 21377.0
11.633399220 21174.0
11.644265660 20946.0
11.655132100 21288.0
11.665998540 21258.0
11.676864980 21298.0
11.687731420 21317.0
11.698597860 21001.0
11.709464300 21307.0
11.720330740 21199.0
11.731197180 20961.0
11.742063620 21189.0
11.752930060 21287.0
11.763796500 21298.0
11.774662940 21321.0
11.785529380 20946.0
11.796395820 21294.0
11.807262260 21145.0
11.818128700 20870.0
11.828995140 21135.0
11.839861580 21169.0
11.850728020 21020.0
11.861594460 20927.0
11.872460900 21010.0
11.883327340 21122.0
11.894193780 20897.0
11.905060220 20886.0
11.915926660 21029.0
11.926793100 21093.0
11.937659540 20895.0
11.948525980 21029.0
11.959392420 20920.0
11.970258860 21027.0
11.981125300 21128.0
11.991991740 20685.0
12.002858180 20782.0
12.013724620 20864.0
12.024591060 21180.0
12.035457500 20560.0
12.046323940 20876.0
12.057190380 20927.0
12.068056820 20813.0
12.078923260 20917.0
12.089789700 20680.0
12.100656140 20910.0
12.111522580 20717.0
12.122389020 20833.0
12.133255460 20986.0
12.144121900 20828.0
12.154988340 20564.0
12.165854780 20918.0
12.176721220 20620.0
12.187587660 20562.0
12.198454100 20720.0
12.209320540 20573.0
12.220186980 20721.0
12.231053420 20595.0
12.241919860 20669.0
12.252786300 20926.0
12.263652740 20599.0
12.274519180 20858.0
12.285385620 20602.0
12.296252060 20761.0
12.307118500 20737.0
12.317984940 20776.0
12.328851380 20566.0
12.339717820 20749.0
12.350584260 20627.0
12.361450700 20740.0
12.372317140 20722.0
12.383183580 20520.0
12.394050020 20575.0
12.404916460 20519.0
12.415782900 20566.0
12.426649340 20629.0
12.437515780 20405.0
12.448382220 20578.0
12.459248660 20502.0
12.470115100 20466.0
12.480981540 20755.0
12.491847980 20667.0
12.502714420 20616.0
12.513580860 20498.0
12.524447300 20500.0
12.535313740 20255.0
12.546180180 20373.0
12.557046620 20469.0
12.567913060 20611.0
12.578779500 20588.0
12.589645940 20488.0
12.600512380 20384.0
12.611378820 20349.0
12.622245260 20591.0
12.633111700 20467.0
12.643978140 20554.0
12.654844580 20550.0
12.665711020 20289.0
12.676577460 20206.0
12.687443900 20202.0
12.698310340 20449.0
12.709176780 20388.0
12.720043220 20441.0
12.730909660 20480.0
12.741776100 20372.0
12.752642540 20243.0
12.763508980 20285.0
12.774375420 20283.0
12.785241860 19973.0
12.796108300 20182.0
12.806974740 20276.0
12.817841180 20258.0
12.828707620 20180.0
12.839574060 20292.0
12.850440500 20106.0
12.861306940 20170.0
12.872173380 20385.0
12.883039820 19996.0
12.893906260 20172.0
12.904772700 20317.0
12.915639140 20323.0
12.926505580 20270.0
12.937372020 20269.0
12.948238460 19885.0
12.959104900 20564.0
12.969971340 20092.0
12.980837780 20070.0
12.991704220 19959.0
13.002570660 20084.0
13.013437100 20254.0
13.024303540 20087.0
13.035169980 20034.0
13.046036420 20352.0
13.056902860 20234.0
13.067769300 20015.0
13.078635740 19933.0
13.089502180 20049.0
13.100368620 19953.0
13.111235060 20028.0
13.122101500 20074.0
13.132967940 20240.0
13.143834380 19880.0
13.154700820 19783.0
13.165567260 20173.0
13.176433700 20052.0
13.187300140 20134.0
13.198166580 20037.0
13.209033020 19962.0
13.219899460 20287.0
13.230765900 19834.0
13.241632340 19884.0
13.252498780 19952.0
13.263365220 19828.0
13.274231660 19835.0
13.285098100 19899.0
13.295964540 20024.0
13.306830980 19896.0
13.317697420 20028.0
13.328563860 20023.0
13.339430300 20089.0
13.350296740 19871.0
13.361163180 20053.0
13.372029620 20074.0
13.382896060 19819.0
13.393762500 20021.0
13.404628940 19878.0
13.415495380 19840.0
13.426361820 19648.0
13.437228260 19743.0
13.448094700 19694.0
13.458961140 19832.0
13.469827580 19857.0
13.480694020 19750.0
13.491560460 19687.0
13.502426900 20232.0
13.513293340 19828.0
13.524159780 19921.0
13.535026220 19732.0
13.545892660 19604.0
13.556759100 19823.0
13.567625540 19721.0
13.578491980 19896.0
13.589358420 19864.0
13.600224860 19649.0
13.611091300 19910.0
13.621957740 19606.0
13.632824180 19839.0
13.643690620 19824.0
13.654557060 19715.0
13.665423500 19780.0
13.676289940 19860.0
13.687156380 19537.0
13.698022820 19854.0
13.708889260 19478.0
13.719755700 19846.0
13.730622140 19839.0
13.741488580 19622.0
13.752355020 19843.0
13.763221460 19868.0
13.774087900 19700.0
13.784954340 19649.0
13.795820780 19544.0
13.806687220 19450.0
13.817553660 19893.0
13.828420100 19367.0
13.839286540 19545.0
13.850152980 19545.0
13.861019420 19553.0
13.871885860 19558.0
13.882752300 19560.0
13.893618740 19521.0
13.904485180 19337.0
13.915351620 19763.0
13.926218060 19528.0
13.937084500 19694.0
13.947950940 19597.0
13.958817380 19455.0
13.969683820 19577.0
13.980550260 19346.0
13.991416700 19604.0
14.002283140 19701.0
14.013149580 19486.0
14.024016020 19609.0
14.034882460 19307.0
14.045748900 19394.0
14.056615340 19526.0
14.067481780 19636.0
14.078348220 19542.0
14.089214660 19648.0
14.100081100 19457.0
14.110947540 19512.0
14.121813980 19668.0
14.132680420 19589.0
14.143546860 19409.0
14.154413300 19421.0
14.165279740 19471.0
14.176146180 19447.0
14.187012620 19324.0
14.197879060 19345.0
14.208745500 19297.0
14.219611940 19435.0
14.230478380 19661.0
14.241344820 19670.0
14.252211260 19606.0
14.263077700 19540.0
14.273944140 19345.0
14.284810580 19374.0
14.295677020 19266.0
14.306543460 18998.0
14.317409900 19425.0
14.328276340 19589.0
14.339142780 19594.0
14.350009220 19381.0
14.360875660 19101.0
14.371742100 19579.0
14.382608540 19343.0
14.393474980 19351.0
14.404341420 19431.0
14.415207860 19201.0
14.426074300 19077.0
14.436940740 19512.0
14.447807180 19218.0
14.458673620 19218.0
14.469540060 19181.0
14.480406500 19339.0
14.491272940 19298.0
14.502139380 19217.0
14.513005820 19163.0
14.523872260 19116.0
14.534738700 19160.0
14.545605140 19103.0
14.556471580 19454.0
14.567338020 19168.0
14.578204460 19072.0
14.589070900 19133.0
14.599937340 18998.0
14.610803780 19054.0
14.621670220 19169.0
14.632536660 18955.0
14.643403100 18887.0
14.654269540 19331.0
14.665135980 19034.0
14.676002420 19288.0
14.686868860 19143.0
14.697735300 19086.0
14.708601740 19041.0
14.719468180 19193.0
14.730334620 19087.0
14.741201060 19289.0
14.752067500 18979.0
14.762933940 19141.0
14.773800380 18949.0
14.784666820 19016.0
14.795533260 19072.0
14.806399700 18919.0
14.817266140 18899.0
14.828132580 18966.0
14.838999020 18752.0
14.849865460 19126.0
14.860731900 18783.0
14.871598340 19075.0
14.882464780 19133.0
14.893331220 19091.0
14.904197660 18716.0
14.915064100 18995.0
14.925930540 19077.0
14.936796980 19040.0
14.947663420 18664.0
14.958529860 18874.0
14.969396300 19073.0
14.980262740 18956.0
14.991129180 18719.0
15.001995620 18860.0
15.012862060 18888.0
15.023728500 18819.0
15.034594940 18864.0
15.045461380 18973.0
15.056327820 18913.0
15.067194260 18910.0
15.078060700 19002.0
15.088927140 18869.0
15.099793580 18803.0
15.110660020 18811.0
15.121526460 18948.0
15.132392900 18718.0
15.143259340 18685.0
15.154125780 18955.0
15.164992220 18738.0
15.175858660 18772.0
15.186725100 18789.0
15.197591540 18691.0
15.208457980 18654.0
15.219324420 18951.0
15.230190860 18676.0
15.241057300 18847.0
15.251923740 19014.0
15.262790180 18934.0
15.273656620 18933.0
15.284523060 19065.0
15.295389500 18686.0
15.306255940 18839.0
15.317122380 19061.0
15.327988820 18852.0
15.338855260 18976.0
15.349721700 18851.0
15.360588140 18991.0
15.371454580 18830.0
15.382321020 18832.0
15.393187460 18712.0
15.404053900 18827.0
15.414920340 18877.0
15.425786780 18719.0
15.436653220 18948.0
15.447519660 18954.0
15.458386100 19068.0
15.469252540 19138.0
15.480118980 19005.0
15.490985420 19276.0
15.501851860 19151.0
15.512718300 19020.0
15.523584740 19202.0
15.534451180 19442.0
15.545317620 19247.0
15.556184060 19322.0
15.567050500 19317.0
15.577916940 19274.0
15.588783380 19542.0
15.599649820 19435.0
15.610516260 19861.0
15.621382700 19752.0
15.632249140 19848.0
15.643115580 19890.0
15.653982020 20122.0
15.664848460 20096.0
15.675714900 20576.0
15.686581340 20632.0
15.697447780 20928.0
15.708314220 20828.0
15.719180660 21325.0
15.730047100 21232.0
15.740913540 21620.0
15.751779980 22126.0
15.762646420 22617.0
15.773512860 23059.0
15.784379300 23750.0
15.795245740 24222.0
15.806112180 25122.0
15.816978620 25631.0
15.827845060 26646.0
15.838711500 28079.0
15.849577940 29558.0
15.860444380 30591.0
15.871310820 32450.0
15.882177260 34610.0
15.893043700 36480.0
15.903910140 38845.0
15.914776580 40752.0
15.925643020 42081.0
15.936509460 43406.0
15.947375900 43073.0
15.958242340 41252.0
15.969108780 39051.0
15.979975220 36380.0
15.990841660 33525.0
16.001708100 31133.0
16.012574540 28647.0
16.023440980 27204.0
16.034307420 26025.0
16.045173860 24767.0
16.056040300 24574.0
16.066906740 23846.0
16.077773180 22981.0
16.088639620 22318.0
16.099506060 21568.0
16.110372500 21064.0
16.121238940 20222.0
16.132105380 19819.0
16.142971820 19552.0
16.153838260 19497.0
16.164704700 18983.0
16.175571140 19268.0
16.186437580 18883.0
16.197304020 18900.0
16.208170460 19021.0
16.219036900 18749.0
16.229903340 18876.0
16.240769780 18603.0
16.251636220 18926.0
16.262502660 18803.0
16.273369100 19018.0
16.284235540 18545.0
16.295101980 18495.0
16.305968420 18324.0
16.316834860 18578.0
16.327701300 18302.0
16.338567740 18349.0
16.349434180 18234.0
16.360300620 18286.0
16.371167060 18343.0
16.382033500 18327.0
16.392899940 18183.0
16.403766380 18377.0
16.414632820 18270.0
16.425499260 18438.0
16.436365700 18592.0
16.447232140 18200.0
16.458098580 18425.0
16.468965020 18215.0
16.479831460 18254.0
16.490697900 18280.0
16.501564340 18280.0
16.512430780 18439.0
16.523297220 18383.0
16.534163660 18163.0
16.545030100 18223.0
16.555896540 18255.0
16.566762980 18016.0
16.577629420 18091.0
16.588495860 18138.0
16.599362300 17945.0
16.610228740 18065.0
16.621095180 18118.0
16.631961620 18188.0
16.642828060 18133.0
16.653694500 18266.0
16.664560940 18071.0
16.675427380 18122.0
16.686293820 18247.0
16.697160260 18061.0
16.708026700 18228.0
16.718893140 18236.0
16.729759580 18206.0
16.740626020 18414.0
16.751492460 18176.0
16.762358900 18057.0
16.773225340 18155.0
16.784091780 17962.0
16.794958220 18138.0
16.805824660 18168.0
16.816691100 18130.0
16.827557540 18056.0
16.838423980 18201.0
16.849290420 17968.0
16.860156860 17933.0
16.871023300 17873.0
16.881889740 18155.0
16.892756180 18009.0
16.903622620 17855.0
16.914489060 17938.0
16.925355500 18038.0
16.936221940 17761.0
16.947088380 17804.0
16.957954820 18200.0
16.968821260 18003.0
16.979687700 18135.0
16.990554140 17957.0
17.001420580 17757.0
17.012287020 18107.0
17.023153460 18079.0
17.034019900 18190.0
17.044886340 17956.0
17.055752780 18165.0
17.066619220 17972.0
17.077485660 17817.0
17.088352100 17850.0
17.099218540 18164.0
17.110084980 18039.0
17.120951420 18099.0
17.131817860 18203.0
17.142684300 17941.0
17.153550740 18187.0
17.164417180 17813.0
17.175283620 17816.0
17.186150060 18073.0
17.197016500 18101.0
17.207882940 18162.0
17.218749380 17827.0
17.229615820 17973.0
17.240482260 18116.0
17.251348700 18174.0
17.262215140 18288.0
17.273081580 17934.0
17.283948020 18263.0
17.294814460 17943.0
17.305680900 18267.0
17.316547340 18311.0
17.327413780 18234.0
17.338280220 18032.0
17.349146660 18460.0
17.360013100 18350.0
17.370879540 18437.0
17.381745980 18224.0
17.392612420 18228.0
17.403478860 18361.0
17.414345300 18557.0
17.425211740 18397.0
17.436078180 18553.0
17.446944620 18813.0
17.457811060 18623.0
17.468677500 18824.0
17.479543940 18873.0
17.490410380 18921.0
17.501276820 19140.0
17.512143260 19208.0
17.523009700 19310.0
17.533876140 19281.0
17.544742580 19422.0
17.555609020 19784.0
17.566475460 19886.0
17.577341900 20018.0
17.588208340 20659.0
17.599074780 20479.0
17.609941220 21317.0
17.620807660 21465.0
17.631674100 22001.0
17.642540540 22555.0
17.653406980 22901.0
17.664273420 23958.0
17.675139860 24457.0
17.686006300 24922.0
17.696872740 26186.0
17.707739180 27444.0
17.718605620 28953.0
17.729472060 30524.0
17.740338500 33091.0
17.751204940 35566.0
17.762071380 38251.0
17.772937820 40780.0
17.783804260 44287.0
17.794670700 47973.0
17.805537140 51391.0
17.816403580 53517.0
17.827270020 54973.0
17.838136460 54451.0
17.849002900 52029.0
17.859869340 48437.0
17.870735780 44349.0
17.881602220 40097.0
17.892468660 35698.0
17.903335100 31632.0
17.914201540 28358.0
17.925067980 25432.0
17.935934420 23819.0
17.946800860 21983.0
17.957667300 21058.0
17.968533740 20388.0
17.979400180 19871.0
17.990266620 19030.0
18.001133060 19412.0
18.011999500 18809.0
18.022865940 18640.0
18.033732380 18663.0
18.044598820 18693.0
18.055465260 18489.0
18.066331700 18490.0
18.077198140 18273.0
18.088064580 18263.0
18.098931020 17894.0
18.109797460 18215.0
18.120663900 18247.0
18.131530340 18120.0
18.142396780 18019.0
18.153263220 18307.0
18.164129660 18079.0
18.174996100 18043.0
18.185862540 17951.0
18.196728980 17857.0
18.207595420 18140.0
18.218461860 17863.0
18.229328300 17662.0
18.240194740 17854.0
18.251061180 17771.0
18.261927620 17847.0
18.272794060 17537.0
18.283660500 17808.0
18.294526940 17827.0
18.305393380 17756.0
18.316259820 18047.0
18.327126260 17848.0
18.337992700 17735.0
18.348859140 17892.0
18.359725580 17685.0
18.370592020 17869.0
18.381458460 17258.0
18.392324900 17573.0
18.403191340 17569.0
18.414057780 17309.0
18.424924220 17397.0
18.435790660 17548.0
18.446657100 17567.0
18.457523540 17533.0
18.468389980 17561.0
18.479256420 17920.0
18.490122860 17366.0
18.500989300 17688.0
18.511855740 17428.0
18.522722180 17718.0
18.533588620 17391.0
18.544455060 17657.0
18.555321500 17370.0
18.566187940 17649.0
18.577054380 17205.0
18.587920820 17855.0
18.598787260 17486.0
18.609653700 17358.0
18.620520140 17511.0
18.631386580 17385.0
18.642253020 17426.0
18.653119460 17594.0
18.663985900 17249.0
18.674852340 17568.0
18.685718780 17571.0
18.696585220 17542.0
18.707451660 17270.0
18.718318100 17849.0
18.729184540 17447.0
18.740050980 17510.0
18.750917420 17375.0
18.761783860 17414.0
18.772650300 17253.0
18.783516740 17187.0
18.794383180 17203.0
18.805249620 17382.0
18.816116060 17166.0
18.826982500 17668.0
18.837848940 17358.0
18.848715380 17584.0
18.859581820 17587.0
18.870448260 17579.0
18.881314700 17326.0
18.892181140 17451.0
18.903047580 17284.0
18.913914020 17332.0
18.924780460 17246.0
18.935646900 17441.0
18.946513340 17350.0
18.957379780 17290.0
18.968246220 17287.0
18.979112660 17364.0
18.989979100 17149.0
19.000845540 17321.0
19.011711980 17428.0
19.022578420 17496.0
19.033444860 17167.0
19.044311300 17389.0
19.055177740 17247.0
19.066044180 17285.0
19.076910620 17218.0
19.087777060 17144.0
19.098643500 17478.0
19.109509940 17478.0
19.120376380 17324.0
19.131242820 17422.0
19.142109260 17269.0
19.152975700 17452.0
19.163842140 17325.0
19.174708580 17430.0
19.185575020 17258.0
19.196441460 17452.0
19.207307900 17406.0
19.218174340 17526.0
19.229040780 17172.0
19.239907220 17316.0
19.250773660 16973.0
19.261640100 17194.0
19.272506540 17279.0
19.283372980 17514.0
19.294239420 17319.0
19.305105860 17244.0
19.315972300 17169.0
19.326838740 17378.0
19.337705180 17160.0
19.348571620 17438.0
19.359438060 17200.0
19.370304500 17261.0
19.381170940 17311.0
19.392037380 17568.0
19.402903820 17255.0
19.413770260 17624.0
19.424636700 17431.0
19.435503140 17543.0
19.446369580 17015.0
19.457236020 17502.0
19.468102460 17191.0
19.478968900 17306.0
19.489835340 17165.0
19.500701780 17192.0
19.511568220 16965.0
19.522434660 17023.0
19.533301100 17156.0
19.544167540 17506.0
19.555033980 17113.0
19.565900420 17059.0
19.576766860 17036.0
19.587633300 17253.0
19.598499740 17175.0
19.609366180 17537.0
19.620232620 17385.0
19.631099060 17231.0
19.641965500 17192.0
19.652831940 17345.0
19.663698380 17274.0
19.674564820 17125.0
19.685431260 17017.0
19.696297700 17323.0
19.707164140 17174.0
19.718030580 17466.0
19.728897020 17359.0
19.739763460 17277.0
19.750629900 17123.0
19.761496340 16973.0
19.772362780 17156.0
19.783229220 17523.0
19.794095660 16873.0
19.804962100 17389.0
19.815828540 16999.0
19.826694980 17378.0
19.837561420 17111.0
19.848427860 17470.0
19.859294300 16866.0
19.870160740 17368.0
19.881027180 17413.0
19.891893620 17332.0
19.902760060 17103.0
19.913626500 17059.0
19.924492940 17354.0
19.935359380 17166.0
19.946225820 17159.0
19.957092260 17367.0
19.967958700 16832.0
19.978825140 17084.0
19.989691580 17314.0
20.000558020 17226.0
20.011424460 17056.0
20.022290900 17421.0
20.033157340 17079.0
20.044023780 16974.0
20.054890220 17226.0
20.065756660 17262.0
20.076623100 17177.0
20.087489540 17450.0
20.098355980 17268.0
20.109222420 17052.0
20.120088860 17220.0
20.130955300 17173.0
20.141821740 17222.0
20.152688180 17298.0
20.163554620 17034.0
20.174421060 17182.0
20.185287500 17119.0
20.196153940 17291.0
20.207020380 16990.0
20.217886820 17400.0
20.228753260 17364.0
20.239619700 17420.0
20.250486140 17121.0
20.261352580 17374.0
20.272219020 17098.0
20.283085460 16942.0
20.293951900 17207.0
20.304818340 17014.0
20.315684780 17112.0
20.326551220 17384.0
20.337417660 17242.0
20.348284100 17376.0
20.359150540 17027.0
20.370016980 17310.0
20.380883420 16955.0
20.391749860 17218.0
20.402616300 16987.0
20.413482740 16995.0
20.424349180 17210.0
20.435215620 17302.0
20.446082060 17269.0
20.456948500 17279.0
20.467814940 16944.0
20.478681380 17097.0
20.489547820 17060.0
20.500414260 17128.0
20.511280700 16855.0
20.522147140 17128.0
20.533013580 17182.0
20.543880020 17231.0
20.554746460 17044.0
20.565612900 16996.0
20.576479340 17053.0
20.587345780 17269.0
20.598212220 16858.0
20.609078660 17136.0
20.619945100 17063.0
20.630811540 17288.0
20.641677980 17007.0
20.652544420 16984.0
20.663410860 16882.0
20.674277300 17026.0
20.685143740 16969.0
20.696010180 16961.0
20.706876620 16939.0
20.717743060 16844.0
20.728609500 16835.0
20.739475940 17036.0
20.750342380 16905.0
20.761208820 17007.0
20.772075260 16992.0
20.782941700 16951.0
20.793808140 17013.0
20.804674580 17044.0
20.815541020 16937.0
20.826407460 16948.0
20.837273900 16977.0
20.848140340 17039.0
20.859006780 17175.0
20.869873220 17120.0
20.880739660 17196.0
20.891606100 17065.0
20.902472540 17100.0
20.913338980 17331.0
20.924205420 16939.0
20.935071860 17004.0
20.945938300 17120.0
20.956804740 17042.0
20.967671180 17140.0
20.978537620 17410.0
20.989404060 17106.0
21.000270500 17191.0
21.011136940 16795.0
21.022003380 17076.0
21.032869820 16870.0
21.043736260 17088.0
21.054602700 16841.0
21.065469140 17212.0
21.076335580 16822.0
21.087202020 17009.0
21.098068460 16967.0
21.108934900 17265.0
21.119801340 16935.0
21.130667780 17201.0
21.141534220 16938.0
21.152400660 17076.0
21.163267100 17088.0
21.174133540 16803.0
21.184999980 17129.0
21.195866420 17160.0
21.206732860 16862.0
21.217599300 16987.0
21.228465740 17038.0
21.239332180 17393.0
21.250198620 17035.0
21.261065060 17123.0
21.271931500 16779.0
21.282797940 16985.0
21.293664380 17090.0
21.304530820 17203.0
21.315397260 17037.0
21.326263700 16961.0
21.337130140 16903.0
21.347996580 17228.0
21.358863020 17025.0
21.369729460 17177.0
21.380595900 16854.0
21.391462340 17116.0
21.402328780 16943.0
21.413195220 17285.0
21.424061660 16943.0
21.434928100 17172.0
21.445794540 16998.0
21.456660980 17016.0
21.467527420 17103.0
21.478393860 17001.0
21.489260300 17013.0
21.500126740 16973.0
21.510993180 17043.0
21.521859620 17010.0
21.532726060 16594.0
21.543592500 16937.0
21.554458940 17040.0
21.565325380 17167.0
21.576191820 17150.0
21.587058260 17198.0
21.597924700 17104.0
21.608791140 17189.0
21.619657580 17053.0
21.630524020 17017.0
21.641390460 16977.0
21.652256900 17137.0
21.663123340 16982.0
21.673989780 17219.0
21.684856220 17109.0
21.695722660 17195.0
21.706589100 17122.0
21.717455540 17058.0
21.728321980 16945.0
21.739188420 17128.0
21.750054860 16984.0
21.760921300 17051.0
21.771787740 16921.0
21.782654180 17132.0
21.793520620 16907.0
21.804387060 16998.0
21.815253500 16862.0
21.826119940 17232.0
21.836986380 17042.0
21.847852820 17046.0
21.858719260 17064.0
21.869585700 16876.0
21.880452140 17117.0
21.891318580 16954.0
21.902185020 17133.0
21.913051460 16965.0
21.923917900 17088.0
21.934784340 17154.0
21.945650780 17050.0
21.956517220 17142.0
21.967383660 17284.0
21.978250100 17379.0
21.989116540 17059.0
21.999982980 17222.0
22.010849420 17238.0
22.021715860 17260.0
22.032582300 16865.0
22.043448740 17151.0
22.054315180 16884.0
22.065181620 17353.0
22.076048060 16996.0
22.086914500 17295.0
22.097780940 17032.0
22.108647380 17034.0
22.119513820 17014.0
22.130380260 17016.0
22.141246700 17049.0
22.152113140 17221.0
22.162979580 16973.0
22.173846020 17349.0
22.184712460 17120.0
22.195578900 17222.0
22.206445340 16922.0
22.217311780 17079.0
22.228178220 16912.0
22.239044660 17284.0
22.249911100 17149.0
22.260777540 17051.0
22.271643980 17319.0
22.282510420 17230.0
22.293376860 17321.0
22.304243300 17365.0
22.315109740 17370.0
22.325976180 17800.0
22.336842620 17680.0
22.347709060 17454.0
22.358575500 17379.0
22.369441940 17947.0
22.380308380 17924.0
22.391174820 17873.0
22.402041260 18242.0
22.412907700 18253.0
22.423774140 18452.0
22.434640580 18941.0
22.445507020 19192.0
22.456373460 19788.0
22.467239900 19969.0
22.478106340 20454.0
22.488972780 20975.0
22.499839220 21990.0
22.510705660 22924.0
22.521572100 24413.0
22.532438540 25314.0
22.543304980 26747.0
22.554171420 28551.0
22.565037860 29681.0
22.575904300 30780.0
22.586770740 31686.0
22.597637180 31016.0
22.608503620 30342.0
22.619370060 28502.0
22.630236500 26790.0
22.641102940 25601.0
22.651969380 24346.0
22.662835820 22595.0
22.673702260 21417.0
22.684568700 19670.0
22.695435140 19439.0
22.706301580 18330.0
22.717168020 18040.0
22.728034460 17684.0
22.738900900 17766.0
22.749767340 17396.0
22.760633780 17769.0
22.771500220 17242.0
22.782366660 17510.0
22.793233100 17438.0
22.804099540 17254.0
22.814965980 17095.0
22.825832420 17122.0
22.836698860 17417.0
22.847565300 17105.0
22.858431740 17330.0
22.869298180 17400.0
22.880164620 17158.0
22.891031060 17038.0
22.901897500 16899.0
22.912763940 16954.0
22.923630380 16901.0
22.934496820 17117.0
22.945363260 17191.0
22.956229700 17089.0
22.967096140 17104.0
22.977962580 16755.0
22.988829020 16937.0
22.999695460 16983.0
23.010561900 17049.0
23.021428340 16938.0
23.032294780 17043.0
23.043161220 16816.0
23.054027660 16861.0
23.064894100 16990.0
23.075760540 16560.0
23.086626980 17010.0
23.097493420 16917.0
23.108359860 16849.0
23.119226300 16752.0
23.130092740 16695.0
23.140959180 16761.0
23.151825620 16972.0
23.162692060 16575.0
23.173558500 16754.0
23.184424940 17042.0
23.195291380 17026.0
23.206157820 16911.0
23.217024260 16998.0
23.227890700 16674.0
23.238757140 17004.0
23.249623580 16766.0
23.260490020 17069.0
23.271356460 16874.0
23.282222900 16955.0
23.293089340 16754.0
23.303955780 16517.0
23.314822220 16709.0
23.325688660 16485.0
23.336555100 16848.0
23.347421540 16788.0
23.358287980 16850.0
23.369154420 16838.0
23.380020860 16769.0
23.390887300 16772.0
23.401753740 16819.0
23.412620180 16851.0
23.423486620 16790.0
23.434353060 16787.0
23.445219500 16505.0
23.456085940 16768.0
23.466952380 16692.0
23.477818820 16625.0
23.488685260 16627.0
23.499551700 16739.0
23.510418140 16743.0
23.521284580 16653.0
23.532151020 16669.0
23.543017460 17179.0
23.553883900 16608.0
23.564750340 16516.0
23.575616780 16501.0
23.586483220 16809.0
23.597349660 16517.0
23.608216100 16931.0
23.619082540 16857.0
23.629948980 16605.0
23.640815420 16855.0
23.651681860 16607.0
23.662548300 16878.0
23.673414740 16650.0
23.684281180 16558.0
23.695147620 16699.0
23.706014060 16771.0
23.716880500 16755.0
23.727746940 16543.0
23.738613380 16617.0
23.749479820 16794.0
23.760346260 16502.0
23.771212700 16434.0
23.782079140 16578.0
23.792945580 16682.0
23.803812020 16769.0
23.814678460 16550.0
23.825544900 16546.0
23.836411340 16600.0
23.847277780 16815.0
23.858144220 16672.0
23.869010660 16737.0
23.879877100 16675.0
23.890743540 16685.0
23.901609980 16500.0
23.912476420 16766.0
23.923342860 16577.0
23.934209300 16652.0
23.945075740 16783.0
23.955942180 16740.0
23.966808620 16529.0
23.977675060 16384.0
23.988541500 16830.0
23.999407940 16593.0
24.010274380 16413.0
24.021140820 16788.0
24.032007260 16407.0
24.042873700 16500.0
24.053740140 16557.0
24.064606580 16849.0
24.075473020 16556.0
24.086339460 16756.0
24.097205900 16631.0
24.108072340 16837.0
24.118938780 16634.0
24.129805220 16922.0
24.140671660 16766.0
24.151538100 16835.0
24.162404540 16487.0
24.173270980 16724.0
24.184137420 16843.0
24.195003860 16675.0
24.205870300 16693.0
24.216736740 16623.0
24.227603180 16576.0
24.238469620 16718.0
24.249336060 16742.0
24.260202500 16804.0
24.271068940 16864.0
24.281935380 16673.0
24.292801820 16574.0
24.303668260 16823.0
24.314534700 16893.0
24.325401140 16987.0
24.336267580 16673.0
24.347134020 17016.0
24.358000460 16818.0
24.368866900 17119.0
24.379733340 16689.0
24.390599780 17007.0
24.401466220 17004.0
24.412332660 17197.0
24.423199100 16912.0
24.434065540 16831.0
24.444931980 16896.0
24.455798420 17062.0
24.466664860 16981.0
24.477531300 16991.0
24.488397740 16862.0
24.499264180 17192.0
24.510130620 16992.0
24.520997060 17315.0
24.531863500 17444.0
24.542729940 17499.0
24.553596380 17288.0
24.564462820 17288.0
24.575329260 17620.0
24.586195700 17568.0
24.597062140 17422.0
24.607928580 17325.0
24.618795020 17248.0
24.629661460 17676.0
24.640527900 17358.0
24.651394340 17484.0
24.662260780 17597.0
24.673127220 17758.0
24.683993660 17674.0
24.694860100 17965.0
24.705726540 18091.0
24.716592980 18202.0
24.727459420 18394.0
24.738325860 18627.0
24.749192300 19151.0
24.760058740 19099.0
24.770925180 19189.0
24.781791620 18867.0
24.792658060 18701.0
24.803524500 18766.0
24.814390940 18737.0
24.825257380 18684.0
24.836123820 18256.0
24.846990260 18308.0
24.857856700 18160.0
24.868723140 18586.0
24.879589580 18464.0
24.890456020 18598.0
24.901322460 18394.0
24.912188900 18828.0
24.923055340 18907.0
24.933921780 19402.0
24.944788220 19312.0
24.955654660 19599.0
24.966521100 19748.0
24.977387540 20290.0
24.988253980 20715.0
24.999120420 21110.0
25.009986860 21881.0
25.020853300 22190.0
25.031719740 22950.0
25.042586180 23833.0
25.053452620 24511.0
25.064319060 26045.0
25.075185500 27317.0
25.086051940 29063.0
25.096918380 30606.0
25.107784820 33181.0
25.118651260 36023.0
25.129517700 38966.0
25.140384140 42439.0
25.151250580 46053.0
25.162117020 49885.0
25.172983460 52076.0
25.183849900 54212.0
25.194716340 54325.0
25.205582780 52667.0
25.216449220 50867.0
25.227315660 48753.0
25.238182100 46692.0
25.249048540 45316.0
25.259914980 44182.0
25.270781420 42810.0
25.281647860 42715.0
25.292514300 42334.0
25.303380740 43204.0
25.314247180 43985.0
25.325113620 45257.0
25.335980060 45387.0
25.346846500 43843.0
25.357712940 40738.0
25.368579380 37891.0
25.379445820 35264.0
25.390312260 33339.0
25.401178700 30919.0
25.412045140 29137.0
25.422911580 26024.0
25.433778020 23830.0
25.444644460 21935.0
25.455510900 20528.0
25.466377340 19946.0
25.477243780 19074.0
25.488110220 18446.0
25.498976660 18391.0
25.509843100 18144.0
25.520709540 18224.0
25.531575980 17912.0
25.542442420 17609.0
25.553308860 17654.0
25.564175300 17598.0
25.575041740 17584.0
25.585908180 17356.0
25.596774620 17294.0
25.607641060 17676.0
25.618507500 17605.0
25.629373940 17674.0
25.640240380 17133.0
25.651106820 17374.0
25.661973260 17131.0
25.672839700 17177.0
25.683706140 17568.0
25.694572580 17415.0
25.705439020 17179.0
25.716305460 17222.0
25.727171900 17269.0
25.738038340 17326.0
25.748904780 17227.0
25.759771220 17195.0
25.770637660 16947.0
25.781504100 17357.0
25.792370540 17143.0
25.803236980 17370.0
25.814103420 17264.0
25.824969860 17212.0
25.835836300 17161.0
25.846702740 17040.0
25.857569180 17349.0
25.868435620 17440.0
25.879302060 17480.0
25.890168500 17544.0
25.901034940 17495.0
25.911901380 17600.0
25.922767820 17844.0
25.933634260 17743.0
25.944500700 17776.0
25.955367140 18109.0
25.966233580 18539.0
25.977100020 18387.0
25.987966460 18777.0
25.998832900 19084.0
26.009699340 19480.0
26.020565780 19295.0
26.031432220 19396.0
26.042298660 19114.0
26.053165100 18960.0
26.064031540 18779.0
26.074897980 18661.0
26.085764420 18233.0
26.096630860 18300.0
26.107497300 17898.0
26.118363740 17809.0
26.129230180 17804.0
26.140096620 17822.0
26.150963060 17873.0
26.161829500 17550.0
26.172695940 18073.0
26.183562380 17700.0
26.194428820 17822.0
26.205295260 18078.0
26.216161700 17738.0
26.227028140 17950.0
26.237894580 18065.0
26.248761020 18011.0
26.259627460 18407.0
26.270493900 18300.0
26.281360340 18388.0
26.292226780 18588.0
26.303093220 18470.0
26.313959660 18692.0
26.324826100 18530.0
26.335692540 18992.0
26.346558980 19045.0
26.357425420 18936.0
26.368291860 19444.0
26.379158300 19522.0
26.390024740 19678.0
26.400891180 19838.0
26.411757620 20167.0
26.422624060 20099.0
26.433490500 20612.0
26.444356940 20780.0
26.455223380 21130.0
26.466089820 21484.0
26.476956260 22252.0
26.487822700 22570.0
26.498689140 23395.0
26.509555580 24199.0
26.520422020 24883.0
26.531288460 25573.0
26.542154900 26457.0
26.553021340 28082.0
26.563887780 29318.0
26.574754220 30412.0
26.585620660 31969.0
26.596487100 34251.0
26.607353540 36284.0
26.618219980 38919.0
26.629086420 41222.0
26.639952860 44509.0
26.650819300 47395.0
26.661685740 50586.0
26.672552180 53718.0
26.683418620 56620.0
26.694285060 59132.0
26.705151500 60497.0
26.716017940 61171.0
26.726884380 60675.0
26.737750820 59630.0
26.748617260 56976.0
26.759483700 54795.0
26.770350140 52492.0
26.781216580 50179.0
26.792083020 47201.0
26.802949460 43848.0
26.813815900 40797.0
26.824682340 38496.0
26.835548780 35853.0
26.846415220 33798.0
26.857281660 32143.0
26.868148100 29843.0
26.879014540 28749.0
26.889880980 27683.0
26.900747420 26807.0
26.911613860 25807.0
26.922480300 25173.0
26.933346740 24379.0
26.944213180 23892.0
26.955079620 22961.0
26.965946060 22731.0
26.976812500 22012.0
26.987678940 21654.0
26.998545380 21231.0
27.009411820 21191.0
27.020278260 20594.0
27.031144700 20286.0
27.042011140 20001.0
27.052877580 19715.0
27.063744020 19528.0
27.074610460 19486.0
27.085476900 18977.0
27.096343340 18923.0
27.107209780 18922.0
27.118076220 18642.0
27.128942660 18330.0
27.139809100 18124.0
27.150675540 17956.0
27.161541980 17828.0
27.172408420 17955.0
27.183274860 17795.0
27.194141300 17427.0
27.205007740 17565.0
27.215874180 17555.0
27.226740620 17212.0
27.237607060 17420.0
27.248473500 17246.0
27.259339940 16878.0
27.270206380 16958.0
27.281072820 17164.0
27.291939260 16806.0
27.302805700 16904.0
27.313672140 17132.0
27.324538580 16517.0
27.335405020 16633.0
27.346271460 16731.0
27.357137900 16712.0
27.368004340 16584.0
27.378870780 16384.0
27.389737220 16516.0
27.400603660 16344.0
27.411470100 16555.0
27.422336540 16152.0
27.433202980 16488.0
27.444069420 16102.0
27.454935860 16244.0
27.465802300 15879.0
27.476668740 16072.0
27.487535180 15993.0
27.498401620 16162.0
27.509268060 15915.0
27.520134500 15994.0
27.531000940 16214.0
27.541867380 16180.0
27.552733820 16158.0
27.563600260 16135.0
27.574466700 16129.0
27.585333140 16074.0
27.596199580 15805.0
27.607066020 16208.0
27.617932460 15895.0
27.628798900 15930.0
27.639665340 15653.0
27.650531780 15830.0
27.661398220 15585.0
27.672264660 16030.0
27.683131100 15625.0
27.693997540 15667.0
27.704863980 16006.0
27.715730420 15890.0
27.726596860 15893.0
27.737463300 15829.0
27.748329740 15805.0
27.759196180 15922.0
27.770062620 15909.0
27.780929060 15641.0
27.791795500 15800.0
27.802661940 15630.0
27.813528380 15787.0
27.824394820 15837.0
27.835261260 15818.0
27.846127700 15757.0
27.856994140 15629.0
27.867860580 15594.0
27.878727020 15723.0
27.889593460 15656.0
27.900459900 15525.0
27.911326340 15746.0
27.922192780 15611.0
27.933059220 15595.0
27.943925660 15660.0
27.954792100 15652.0
27.965658540 15670.0
27.976524980 15575.0
27.987391420 15778.0
27.998257860 15405.0
28.009124300 15709.0
28.019990740 15498.0
28.030857180 15936.0
28.041723620 15646.0
28.052590060 15711.0
28.063456500 15874.0
28.074322940 15868.0
28.085189380 15648.0
28.096055820 15839.0
28.106922260 15685.0
28.117788700 15791.0
28.128655140 15803.0
28.139521580 16025.0
28.150388020 15947.0
28.161254460 15839.0
28.172120900 15869.0
28.182987340 16010.0
28.193853780 16093.0
28.204720220 15988.0
28.215586660 16154.0
28.226453100 16102.0
28.237319540 16266.0
28.248185980 16543.0
28.259052420 16156.0
28.269918860 16614.0
28.280785300 16723.0
28.291651740 16745.0
28.302518180 16961.0
28.313384620 17005.0
28.324251060 17194.0
28.335117500 17399.0
28.345983940 17456.0
28.356850380 17673.0
28.367716820 18020.0
28.378583260 17571.0
28.389449700 17521.0
28.400316140 17665.0
28.411182580 17374.0
28.422049020 17292.0
28.432915460 17443.0
28.443781900 17276.0
28.454648340 17278.0
28.465514780 17014.0
28.476381220 17086.0
28.487247660 16664.0
28.498114100 16720.0
28.508980540 16774.0
28.519846980 16645.0
28.530713420 16532.0
28.541579860 16495.0
28.552446300 16448.0
28.563312740 16507.0
28.574179180 16531.0
28.585045620 16772.0
28.595912060 16400.0
28.606778500 16737.0
28.617644940 16773.0
28.628511380 16919.0
28.639377820 17151.0
28.650244260 17402.0
28.661110700 17603.0
28.671977140 17858.0
28.682843580 18241.0
28.693710020 18706.0
28.704576460 19279.0
28.715442900 20304.0
28.726309340 21479.0
28.737175780 22704.0
28.748042220 23401.0
28.758908660 25023.0
28.769775100 26575.0
28.780641540 27600.0
28.791507980 28596.0
28.802374420 28826.0
28.813240860 28556.0
28.824107300 27878.0
28.834973740 27673.0
28.845840180 27150.0
28.856706620 27145.0
28.867573060 26724.0
28.878439500 25872.0
28.889305940 24587.0
28.900172380 23522.0
28.911038820 22034.0
28.921905260 20599.0
28.932771700 19674.0
28.943638140 18776.0
28.954504580 18374.0
28.965371020 17626.0
28.976237460 16944.0
28.987103900 16568.0
28.997970340 16038.0
29.008836780 15916.0
29.019703220 15454.0
29.030569660 15519.0
29.041436100 15226.0
29.052302540 15014.0
29.063168980 14737.0
29.074035420 15134.0
29.084901860 15043.0
29.095768300 15021.0
29.106634740 15017.0
29.117501180 14874.0
29.128367620 14943.0
29.139234060 15032.0
29.150100500 14982.0
29.160966940 14933.0
29.171833380 14819.0
29.182699820 14823.0
29.193566260 14915.0
29.204432700 14945.0
29.215299140 14965.0
29.226165580 14761.0
29.237032020 14963.0
29.247898460 14828.0
29.258764900 14853.0
29.269631340 14783.0
29.280497780 14864.0
29.291364220 14974.0
29.302230660 14950.0
29.313097100 15026.0
29.323963540 15301.0
29.334829980 15412.0
29.345696420 15303.0
29.356562860 15352.0
29.367429300 15877.0
29.378295740 16046.0
29.389162180 16336.0
29.400028620 16876.0
29.410895060 17607.0
29.421761500 17836.0
29.432627940 18850.0
29.443494380 19704.0
29.454360820 20808.0
29.465227260 22499.0
29.476093700 23687.0
29.486960140 25363.0
29.497826580 26882.0
29.508693020 27583.0
29.519559460 27512.0
29.530425900 26554.0
29.541292340 25325.0
29.552158780 23749.0
29.563025220 22224.0
29.573891660 21720.0
29.584758100 20845.0
29.595624540 20521.0
29.606490980 19315.0
29.617357420 18215.0
29.628223860 16970.0
29.639090300 16045.0
29.649956740 15291.0
29.660823180 15278.0
29.671689620 14707.0
29.682556060 14860.0
29.693422500 14567.0
29.704288940 14483.0
29.715155380 14181.0
29.726021820 14344.0
29.736888260 14345.0
29.747754700 14116.0
29.758621140 14092.0
29.769487580 14085.0
29.780354020 14141.0
29.791220460 14472.0
29.802086900 14410.0
29.812953340 14352.0
29.823819780 14166.0
29.834686220 14074.0
29.845552660 14073.0
29.856419100 13961.0
29.867285540 14143.0
29.878151980 13915.0
29.889018420 13911.0
29.899884860 14013.0
29.910751300 13978.0
29.921617740 14075.0
29.932484180 14156.0
29.943350620 14080.0
29.954217060 14142.0
29.965083500 14011.0
29.975949940 13758.0
29.986816380 13812.0
29.997682820 13864.0
30.008549260 13777.0
30.019415700 13770.0
30.030282140 13955.0
30.041148580 14056.0
30.052015020 13795.0
30.062881460 13909.0
30.073747900 13715.0
30.084614340 13960.0
30.095480780 13850.0
30.106347220 13649.0
30.117213660 13929.0
30.128080100 13782.0
30.138946540 13777.0
30.149812980 13771.0
30.160679420 13781.0
30.171545860 13769.0
30.182412300 13803.0
30.193278740 13826.0
30.204145180 13666.0
30.215011620 13837.0
30.225878060 13523.0
30.236744500 13791.0
30.247610940 13764.0
30.258477380 13768.0
30.269343820 13966.0
30.280210260 13620.0
30.291076700 13714.0
30.301943140 13869.0
30.312809580 13704.0
30.323676020 13680.0
30.334542460 13599.0
30.345408900 13610.0
30.356275340 13749.0
30.367141780 13601.0
30.378008220 13582.0
30.388874660 13612.0
30.399741100 13581.0
30.410607540 13773.0
30.421473980 13786.0
30.432340420 13764.0
30.443206860 13752.0
30.454073300 13483.0
30.464939740 13682.0
30.475806180 13585.0
30.486672620 13746.0
30.497539060 13379.0
30.508405500 13524.0
30.519271940 13517.0
30.530138380 13377.0
30.541004820 13304.0
30.551871260 13484.0
30.562737700 13606.0
30.573604140 13458.0
30.584470580 13530.0
30.595337020 13689.0
30.606203460 13446.0
30.617069900 13571.0
30.627936340 13332.0
30.638802780 13653.0
30.649669220 13559.0
30.660535660 13394.0
30.671402100 13572.0
30.682268540 13378.0
30.693134980 13305.0
30.704001420 13346.0
30.714867860 13466.0
30.725734300 13355.0
30.736600740 13356.0
30.747467180 13428.0
30.758333620 13435.0
30.769200060 13401.0
30.780066500 13392.0
30.790932940 13180.0
30.801799380 13488.0
30.812665820 13525.0
30.823532260 13478.0
30.834398700 13430.0
30.845265140 13371.0
30.856131580 13345.0
30.866998020 13098.0
30.877864460 13319.0
30.888730900 13002.0
30.899597340 13198.0
30.910463780 13070.0
30.921330220 13336.0
30.932196660 13356.0
30.943063100 13316.0
30.953929540 13187.0
30.964795980 13288.0
30.975662420 13320.0
30.986528860 13379.0
30.997395300 13074.0
31.008261740 13182.0
31.019128180 13216.0
31.029994620 13160.0
31.040861060 13288.0
31.051727500 13299.0
31.062593940 13120.0
31.073460380 13123.0
31.084326820 13014.0
31.095193260 13334.0
31.106059700 13205.0
31.116926140 13207.0
31.127792580 13091.0
31.138659020 13156.0
31.149525460 13211.0
31.160391900 13207.0
31.171258340 12964.0
31.182124780 13605.0
31.192991220 13301.0
31.203857660 13270.0
31.214724100 13047.0
31.225590540 13125.0
31.236456980 13020.0
31.247323420 13337.0
31.258189860 13121.0
31.269056300 13180.0
31.279922740 13382.0
31.290789180 13249.0
31.301655620 13231.0
31.312522060 13457.0
31.323388500 13381.0
31.334254940 13467.0
31.345121380 13522.0
31.355987820 13487.0
31.366854260 13374.0
31.377720700 13427.0
31.388587140 13247.0
31.399453580 13560.0
31.410320020 13581.0
31.421186460 13237.0
31.432052900 13380.0
31.442919340 13522.0
31.453785780 13565.0
31.464652220 13231.0
31.475518660 13184.0
31.486385100 13067.0
31.497251540 13369.0
31.508117980 13505.0
31.518984420 13287.0
31.529850860 13093.0
31.540717300 13344.0
31.551583740 13260.0
31.562450180 13262.0
31.573316620 13085.0
31.584183060 13106.0
31.595049500 13010.0
31.605915940 13095.0
31.616782380 12918.0
31.627648820 13143.0
31.638515260 12999.0
31.649381700 13142.0
31.660248140 13114.0
31.671114580 13125.0
31.681981020 13034.0
31.692847460 12919.0
31.703713900 13084.0
31.714580340 13184.0
31.725446780 12884.0
31.736313220 12943.0
31.747179660 13070.0
31.758046100 12942.0
31.768912540 12948.0
31.779778980 12847.0
31.790645420 13011.0
31.801511860 13013.0
31.812378300 12741.0
31.823244740 13095.0
31.834111180 13047.0
31.844977620 12796.0
31.855844060 13041.0
31.866710500 13074.0
31.877576940 12815.0
31.888443380 12939.0
31.899309820 12839.0
31.910176260 12778.0
31.921042700 12985.0
31.931909140 13100.0
31.942775580 13069.0
31.953642020 13034.0
31.964508460 12984.0
31.975374900 12883.0
31.986241340 12636.0
31.997107780 12924.0
32.007974220 12993.0
32.018840660 12740.0
32.029707100 12611.0
32.040573540 12937.0
32.051439980 12758.0
32.062306420 12788.0
32.073172860 12883.0
32.084039300 12817.0
32.094905740 12879.0
32.105772180 12705.0
32.116638620 13011.0
32.127505060 12730.0
32.138371500 12812.0
32.149237940 12739.0
32.160104380 12750.0
32.170970820 12808.0
32.181837260 12985.0
32.192703700 12797.0
32.203570140 12799.0
32.214436580 12720.0
32.225303020 12846.0
32.236169460 12639.0
32.247035900 12844.0
32.257902340 12679.0
32.268768780 13030.0
32.279635220 12665.0
32.290501660 12752.0
32.301368100 12742.0
32.312234540 13028.0
32.323100980 12894.0
32.333967420 13010.0
32.344833860 12817.0
32.355700300 13223.0
32.366566740 12945.0
32.377433180 13020.0
32.388299620 12960.0
32.399166060 12937.0
32.410032500 12946.0
32.420898940 13097.0
32.431765380 13073.0
32.442631820 13318.0
32.453498260 13232.0
32.464364700 13355.0
32.475231140 13417.0
32.486097580 13837.0
32.496964020 13838.0
32.507830460 14160.0
32.518696900 14851.0
32.529563340 15017.0
32.540429780 15519.0
32.551296220 16176.0
32.562162660 16984.0
32.573029100 17924.0
32.583895540 19211.0
32.594761980 20805.0
32.605628420 22669.0
32.616494860 24561.0
32.627361300 26292.0
32.638227740 27937.0
32.649094180 28385.0
32.659960620 27487.0
32.670827060 26066.0
32.681693500 23937.0
32.692559940 22501.0
32.703426380 21469.0
32.714292820 21371.0
32.725159260 20772.0
32.736025700 20045.0
32.746892140 18990.0
32.757758580 17504.0
32.768625020 16027.0
32.779491460 15233.0
32.790357900 14145.0
32.801224340 13706.0
32.812090780 13437.0
32.822957220 13224.0
32.833823660 12906.0
32.844690100 12841.0
32.855556540 13002.0
32.866422980 13104.0
32.877289420 12894.0
32.888155860 12703.0
32.899022300 12809.0
32.909888740 12755.0
32.920755180 12881.0
32.931621620 12817.0
32.942488060 12611.0
32.953354500 12680.0
32.964220940 12720.0
32.975087380 12954.0
32.985953820 12699.0
32.996820260 12836.0
33.007686700 12724.0
33.018553140 12590.0
33.029419580 12910.0
33.040286020 12607.0
33.051152460 12848.0
33.062018900 12890.0
33.072885340 12703.0
33.083751780 12714.0
33.094618220 12862.0
33.105484660 12993.0
33.116351100 13016.0
33.127217540 13383.0
33.138083980 13237.0
33.148950420 13086.0
33.159816860 13274.0
33.170683300 12990.0
33.181549740 13340.0
33.192416180 12993.0
33.203282620 13271.0
33.214149060 13019.0
33.225015500 12903.0
33.235881940 12913.0
33.246748380 13067.0
33.257614820 12779.0
33.268481260 12803.0
33.279347700 12579.0
33.290214140 12531.0
33.301080580 12744.0
33.311947020 12945.0
33.322813460 12622.0
33.333679900 12868.0
33.344546340 12711.0
33.355412780 12845.0
33.366279220 12683.0
33.377145660 12856.0
33.388012100 12774.0
33.398878540 12805.0
33.409744980 12740.0
33.420611420 12789.0
33.431477860 13038.0
33.442344300 13222.0
33.453210740 13046.0
33.464077180 13069.0
33.474943620 13097.0
33.485810060 13098.0
33.496676500 13037.0
33.507542940 13666.0
33.518409380 13536.0
33.529275820 13581.0
33.540142260 13890.0
33.551008700 14415.0
33.561875140 14311.0
33.572741580 14606.0
33.583608020 15019.0
33.594474460 15388.0
33.605340900 16071.0
33.616207340 16600.0
33.627073780 17332.0
33.637940220 18643.0
33.648806660 19556.0
33.659673100 20794.0
33.670539540 21607.0
33.681405980 21931.0
33.692272420 21037.0
33.703138860 20627.0
33.714005300 20226.0
33.724871740 20160.0
33.735738180 20405.0
33.746604620 21019.0
33.757471060 21397.0
33.768337500 22252.0
33.779203940 22702.0
33.790070380 22731.0
33.800936820 23169.0
33.811803260 23938.0
33.822669700 25109.0
33.833536140 26399.0
33.844402580 27717.0
33.855269020 28981.0
33.866135460 30337.0
33.877001900 31124.0
33.887868340 31608.0
33.898734780 31804.0
33.909601220 31524.0
33.920467660 31362.0
33.931334100 30472.0
33.942200540 29617.0
33.953066980 29081.0
33.963933420 27988.0
33.974799860 27535.0
33.985666300 26349.0
33.996532740 25249.0
34.007399180 24516.0
34.018265620 23202.0
34.029132060 22004.0
34.039998500 21048.0
34.050864940 19978.0
34.061731380 19421.0
34.072597820 18420.0
34.083464260 17825.0
34.094330700 17393.0
34.105197140 16745.0
34.116063580 16369.0
34.126930020 15950.0
34.137796460 15818.0
34.148662900 15163.0
34.159529340 14953.0
34.170395780 14441.0
34.181262220 14740.0
34.192128660 14218.0
34.202995100 14160.0
34.213861540 13987.0
34.224727980 13789.0
34.235594420 13662.0
34.246460860 13878.0
34.257327300 13210.0
34.268193740 13320.0
34.279060180 13206.0
34.289926620 13200.0
34.300793060 12942.0
34.311659500 13052.0
34.322525940 12482.0
34.333392380 12821.0
34.344258820 12866.0
34.355125260 12578.0
34.365991700 12466.0
34.376858140 12335.0
34.387724580 12322.0
34.398591020 12419.0
34.409457460 12429.0
34.420323900 12339.0
34.431190340 12351.0
34.442056780 12531.0
34.452923220 12484.0
34.463789660 12445.0
34.474656100 12456.0
34.485522540 12746.0
34.496388980 12246.0
34.507255420 12741.0
34.518121860 12739.0
34.528988300 12969.0
34.539854740 12975.0
34.550721180 13050.0
34.561587620 13469.0
34.572454060 13544.0
34.583320500 13859.0
34.594186940 14175.0
34.605053380 14448.0
34.615919820 14862.0
34.626786260 15064.0
34.637652700 15211.0
34.648519140 14735.0
34.659385580 14180.0
34.670252020 13603.0
34.681118460 13570.0
34.691984900 13371.0
34.702851340 13227.0
34.713717780 13177.0
34.724584220 13193.0
34.735450660 12904.0
34.746317100 12525.0
34.757183540 12250.0
34.768049980 12143.0
34.778916420 11653.0
34.789782860 11713.0
34.800649300 11521.0
34.811515740 11366.0
34.822382180 11193.0
34.833248620 11421.0
34.844115060 11166.0
34.854981500 11347.0
34.865847940 11338.0
34.876714380 11233.0
34.887580820 11169.0
34.898447260 10974.0
34.909313700 11061.0
34.920180140 11009.0
34.931046580 11008.0
34.941913020 11179.0
34.952779460 11223.0
34.963645900 10957.0
34.974512340 11186.0
34.985378780 11062.0
34.996245220 11084.0
35.007111660 10916.0
35.017978100 11000.0
35.028844540 11204.0
35.039710980 10839.0
35.050577420 11174.0
35.061443860 10791.0
35.072310300 11035.0
35.083176740 10957.0
35.094043180 10970.0
35.104909620 11136.0
35.115776060 11092.0
35.126642500 10991.0
35.137508940 10883.0
35.148375380 10974.0
35.159241820 11023.0
35.170108260 10817.0
35.180974700 11074.0
35.191841140 10838.0
35.202707580 10895.0
35.213574020 10799.0
35.224440460 11073.0
35.235306900 10642.0
35.246173340 10976.0
35.257039780 10723.0
35.267906220 11059.0
35.278772660 10852.0
35.289639100 10999.0
35.300505540 10952.0
35.311371980 10819.0
35.322238420 10777.0
35.333104860 10974.0
35.343971300 10555.0
35.354837740 10825.0
35.365704180 10744.0
35.376570620 10854.0
35.387437060 10646.0
35.398303500 10801.0
35.409169940 10876.0
35.420036380 10878.0
35.430902820 10805.0
35.441769260 10797.0
35.452635700 10929.0
35.463502140 10949.0
35.474368580 10825.0
35.485235020 10870.0
35.496101460 10796.0
35.506967900 10844.0
35.517834340 10891.0
35.528700780 10987.0
35.539567220 10842.0
35.550433660 10821.0
35.561300100 10931.0
35.572166540 11106.0
35.583032980 10849.0
35.593899420 11137.0
35.604765860 11099.0
35.615632300 11267.0
35.626498740 11438.0
35.637365180 11576.0
35.648231620 11549.0
35.659098060 11873.0
35.669964500 12194.0
35.680830940 12393.0
35.691697380 12578.0
35.702563820 13181.0
35.713430260 13470.0
35.724296700 14529.0
35.735163140 15056.0
35.746029580 16291.0
35.756896020 17225.0
35.767762460 18548.0
35.778628900 20216.0
35.789495340 21869.0
35.800361780 23221.0
35.811228220 24961.0
35.822094660 25648.0
35.832961100 26031.0
35.843827540 25257.0
35.854693980 24095.0
35.865560420 22506.0
35.876426860 21895.0
35.887293300 20869.0
35.898159740 20509.0
35.909026180 20128.0
35.919892620 19934.0
35.930759060 19425.0
35.941625500 18423.0
35.952491940 18019.0
35.963358380 17548.0
35.974224820 16515.0
35.985091260 16274.0
35.995957700 15451.0
36.006824140 14677.0
36.017690580 14041.0
36.028557020 13627.0
36.039423460 13032.0
36.050289900 12919.0
36.061156340 12700.0
36.072022780 12475.0
36.082889220 12229.0
36.093755660 12274.0
36.104622100 11789.0
36.115488540 11528.0
36.126354980 11242.0
36.137221420 11020.0
36.148087860 10754.0
36.158954300 10805.0
36.169820740 10426.0
36.180687180 10577.0
36.191553620 10213.0
36.202420060 10634.0
36.213286500 10415.0
36.224152940 10441.0
36.235019380 10432.0
36.245885820 10409.0
36.256752260 10353.0
36.267618700 10263.0
36.278485140 10215.0
36.289351580 10373.0
36.300218020 10365.0
36.311084460 10257.0
36.321950900 10259.0
36.332817340 10158.0
36.343683780 10127.0
36.354550220 10340.0
36.365416660 10183.0
36.376283100 10076.0
36.387149540 9918.0
36.398015980 10246.0
36.408882420 10043.0
36.419748860 10258.0
36.430615300 10072.0
36.441481740 10353.0
36.452348180 10167.0
36.463214620 10113.0
36.474081060 10082.0
36.484947500 10173.0
36.495813940 10166.0
36.506680380 10179.0
36.517546820 10013.0
36.528413260 10298.0
36.539279700 10010.0
36.550146140 10115.0
36.561012580 10046.0
36.571879020 10159.0
36.582745460 10058.0
36.593611900 10253.0
36.604478340 10116.0
36.615344780 10188.0
36.626211220 10179.0
36.637077660 10161.0
36.647944100 10128.0
36.658810540 10229.0
36.669676980 10131.0
36.680543420 10278.0
36.691409860 10149.0
36.702276300 10234.0
36.713142740 10276.0
36.724009180 10285.0
36.734875620 10098.0
36.745742060 10357.0
36.756608500 10093.0
36.767474940 10110.0
36.778341380 10149.0
36.789207820 10060.0
36.800074260 10040.0
36.810940700 10207.0
36.821807140 10123.0
36.832673580 10045.0
36.843540020 10286.0
36.854406460 10162.0
36.865272900 10135.0
36.876139340 10048.0
36.887005780 10150.0
36.897872220 10123.0
36.908738660 10001.0
36.919605100 9817.0
36.930471540 9967.0
36.941337980 10022.0
36.952204420 10126.0
36.963070860 10260.0
36.973937300 10144.0
36.984803740 10205.0
36.995670180 10095.0
37.006536620 10165.0
37.017403060 10144.0
37.028269500 10178.0
37.039135940 9971.0
37.050002380 10282.0
37.060868820 10285.0
37.071735260 10088.0
37.082601700 9996.0
37.093468140 10171.0
37.104334580 10025.0
37.115201020 10116.0
37.126067460 10102.0
37.136933900 10106.0
37.147800340 10290.0
37.158666780 10254.0
37.169533220 10275.0
37.180399660 10277.0
37.191266100 10455.0
37.202132540 10495.0
37.212998980 10587.0
37.223865420 10810.0
37.234731860 10828.0
37.245598300 10950.0
37.256464740 11315.0
37.267331180 11699.0
37.278197620 11912.0
37.289064060 12102.0
37.299930500 12705.0
37.310796940 13266.0
37.321663380 13417.0
37.332529820 13410.0
37.343396260 13610.0
37.354262700 13384.0
37.365129140 12954.0
37.375995580 12656.0
37.386862020 12194.0
37.397728460 12228.0
37.408594900 12210.0
37.419461340 12333.0
37.430327780 12302.0
37.441194220 12192.0
37.452060660 12070.0
37.462927100 11712.0
37.473793540 11650.0
37.484659980 11246.0
37.495526420 11272.0
37.506392860 11132.0
37.517259300 11071.0
37.528125740 11253.0
37.538992180 11027.0
37.549858620 11063.0
37.560725060 11386.0
37.571591500 11589.0
37.582457940 11548.0
37.593324380 11642.0
37.604190820 11677.0
37.615057260 11741.0
37.625923700 11977.0
37.636790140 12303.0
37.647656580 12553.0
37.658523020 12756.0
37.669389460 12847.0
37.680255900 13165.0
37.691122340 13842.0
37.701988780 14168.0
37.712855220 14722.0
37.723721660 15243.0
37.734588100 16207.0
37.745454540 17097.0
37.756320980 17912.0
37.767187420 18821.0
37.778053860 20100.0
37.788920300 21700.0
37.799786740 23535.0
37.810653180 25259.0
37.821519620 27634.0
37.832386060 29838.0
37.843252500 32514.0
37.854118940 35636.0
37.864985380 38055.0
37.875851820 41492.0
37.886718260 43124.0
37.897584700 45072.0
37.908451140 46090.0
37.919317580 46720.0
37.930184020 46861.0
37.941050460 46485.0
37.951916900 46077.0
37.962783340 45414.0
37.973649780 43778.0
37.984516220 42866.0
37.995382660 41352.0
38.006249100 39805.0
38.017115540 37444.0
38.027981980 36180.0
38.038848420 34116.0
38.049714860 32375.0
38.060581300 30049.0
38.071447740 28265.0
38.082314180 26158.0
38.093180620 24595.0
38.104047060 22991.0
38.114913500 21944.0
38.125779940 20315.0
38.136646380 19686.0
38.147512820 18279.0
38.158379260 18037.0
38.169245700 17037.0
38.180112140 16328.0
38.190978580 15726.0
38.201845020 15203.0
38.212711460 14650.0
38.223577900 14097.0
38.234444340 13763.0
38.245310780 13486.0
38.256177220 12937.0
38.267043660 12581.0
38.277910100 12268.0
38.288776540 11964.0
38.299642980 11929.0
38.310509420 11610.0
38.321375860 11303.0
38.332242300 11316.0
38.343108740 11097.0
38.353975180 10765.0
38.364841620 10734.0
38.375708060 10621.0
38.386574500 10387.0
38.397440940 10304.0
38.408307380 10095.0
38.419173820 10002.0
38.430040260 9866.0
38.440906700 9939.0
38.451773140 9812.0
38.462639580 9963.0
38.473506020 9961.0
38.484372460 9727.0
38.495238900 9564.0
38.506105340 9555.0
38.516971780 9613.0
38.527838220 9523.0
38.538704660 9553.0
38.549571100 9474.0
38.560437540 9642.0
38.571303980 9462.0
38.582170420 9251.0
38.593036860 9600.0
38.603903300 9401.0
38.614769740 9492.0
38.625636180 9110.0
38.636502620 9380.0
38.647369060 9145.0
38.658235500 9346.0
38.669101940 9147.0
38.679968380 9276.0
38.690834820 9229.0
38.701701260 9125.0
38.712567700 9258.0
38.723434140 9172.0
38.734300580 8971.0
38.745167020 9139.0
38.756033460 8953.0
38.766899900 9202.0
38.777766340 8988.0
38.788632780 9285.0
38.799499220 8963.0
38.810365660 9224.0
38.821232100 9254.0
38.832098540 9411.0
38.842964980 9157.0
38.853831420 9101.0
38.864697860 9405.0
38.875564300 9267.0
38.886430740 9445.0
38.897297180 9487.0
38.908163620 9385.0
38.919030060 9410.0
38.929896500 9548.0
38.940762940 9538.0
38.951629380 9637.0
38.962495820 9507.0
38.973362260 9342.0
38.984228700 9640.0
38.995095140 9548.0
39.005961580 9549.0
39.016828020 9459.0
39.027694460 9384.0
39.038560900 9591.0
39.049427340 9684.0
39.060293780 9536.0
39.071160220 9526.0
39.082026660 9407.0
39.092893100 9402.0
39.103759540 9343.0
39.114625980 9402.0
39.125492420 9223.0
39.136358860 8993.0
39.147225300 9077.0
39.158091740 9005.0
39.168958180 8986.0
39.179824620 8976.0
39.190691060 9017.0
39.201557500 8928.0
39.212423940 8967.0
39.223290380 8998.0
39.234156820 8825.0
39.245023260 8825.0
39.255889700 8815.0
39.266756140 8750.0
39.277622580 8806.0
39.288489020 8841.0
39.299355460 8692.0
39.310221900 8790.0
39.321088340 8617.0
39.331954780 8803.0
39.342821220 8836.0
39.353687660 8782.0
39.364554100 8500.0
39.375420540 8808.0
39.386286980 8772.0
39.397153420 8786.0
39.408019860 8671.0
39.418886300 8569.0
39.429752740 8590.0
39.440619180 8650.0
39.451485620 8630.0
39.462352060 8699.0
39.473218500 8682.0
39.484084940 8680.0
39.494951380 8572.0
39.505817820 8754.0
39.516684260 8719.0
39.527550700 8855.0
39.538417140 8525.0
39.549283580 8625.0
39.560150020 8705.0
39.571016460 8911.0
39.581882900 8765.0
39.592749340 9029.0
39.603615780 8670.0
39.614482220 8871.0
39.625348660 8808.0
39.636215100 8794.0
39.647081540 8681.0
39.657947980 8831.0
39.668814420 8802.0
39.679680860 8955.0
39.690547300 8975.0
39.701413740 8976.0
39.712280180 9034.0
39.723146620 9062.0
39.734013060 9132.0
39.744879500 9417.0
39.755745940 9506.0
39.766612380 9716.0
39.777478820 9886.0
39.788345260 10286.0
39.799211700 10447.0
39.810078140 10742.0
39.820944580 11106.0
39.831811020 11472.0
39.842677460 11834.0
39.853543900 12391.0
39.864410340 13009.0
39.875276780 13446.0
39.886143220 13280.0
39.897009660 13257.0
39.907876100 12817.0
39.918742540 12149.0
39.929608980 12038.0
39.940475420 11694.0
39.951341860 11423.0
39.962208300 11119.0
39.973074740 11140.0
39.983941180 11117.0
39.994807620 10840.0
