10.003433220 21644.0
10.014299660 21368.0
10.025166100 21548.0
10.036032540 21549.0
10.046898980 21514.0
10.057765420 21772.0
10.068631860 21582.0
10.079498300 21502.0
10.090364740 21518.0
10.101231180 21459.0
10.112097620 21338.0
10.122964060 21206.0
10.133830500 21511.0
10.144696940 21583.0
10.155563380 21361.0
10.166429820 21543.0
10.177296260 21322.0
10.188162700 21655.0
10.199029140 21417.0
10.209895580 21179.0
10.220762020 21446.0
10.231628460 21223.0
10.242494900 21594.0
10.253361340 21432.0
10.264227780 21272.0
10.275094220 21266.0
10.285960660 21263.0
10.296827100 21562.0
10.307693540 21255.0
10.318559980 21159.0
10.329426420 21326.0
10.340292860 21443.0
10.351159300 21474.0
10.362025740 21180.0
10.372892180 21381.0
10.383758620 21113.0
10.394625060 21393.0
10.405491500 21304.0
10.416357940 21097.0
10.427224380 21103.0
10.438090820 21190.0
10.448957260 20907.0
10.459823700 21058.0
10.470690140 21402.0
10.481556580 21084.0
10.492423020 20985.0
10.503289460 21061.0
10.514155900 21075.0
10.525022340 21036.0
10.535888780 21061.0
10.546755220 20937.0
10.557621660 20787.0
10.568488100 21192.0
10.579354540 20799.0
10.590220980 21350.0
10.601087420 20855.0
10.611953860 21054.0
10.622820300 21034.0
10.633686740 20954.0
10.644553180 20975.0
10.655419620 21216.0
10.666286060 21061.0
10.677152500 21060.0
10.688018940 20949.0
10.698885380 21001.0
10.709751820 20921.0
10.720618260 20849.0
10.731484700 21437.0
10.742351140 21094.0
10.753217580 21166.0
10.764084020 21124.0
10.774950460 20989.0
10.785816900 20679.0
10.796683340 20813.0
10.807549780 20851.0
10.818416220 20947.0
10.829282660 20886.0
10.840149100 20901.0
10.851015540 21011.0
10.861881980 20842.0
10.872748420 20983.0
10.883614860 20784.0
10.894481300 20923.0
10.905347740 20806.0
10.916214180 20883.0
10.927080620 20857.0
10.937947060 21082.0
10.948813500 21090.0
10.959679940 20971.0
10.970546380 21035.0
10.981412820 20816.0
10.992279260 20924.0
11.003145700 20847.0
11.014012140 20949.0
11.024878580 20785.0
11.035745020 20946.0
11.046611460 21038.0
11.057477900 20889.0
11.068344340 21252.0
11.079210780 21147.0
11.090077220 20949.0
11.100943660 20861.0
11.111810100 21000.0
11.122676540 21329.0
11.133542980 21271.0
11.144409420 21298.0
11.155275860 21311.0
11.166142300 21512.0
11.177008740 21544.0
11.187875180 21208.0
11.198741620 21596.0
11.209608060 21434.0
11.220474500 21844.0
11.231340940 21884.0
11.242207380 21909.0
11.253073820 22133.0
11.263940260 22468.0
11.274806700 22327.0
11.285673140 22893.0
11.296539580 23082.0
11.307406020 23518.0
11.318272460 23226.0
11.329138900 23457.0
11.340005340 23375.0
11.350871780 23467.0
11.361738220 23684.0
11.372604660 23433.0
11.383471100 23379.0
11.394337540 22501.0
11.405203980 22428.0
11.416070420 22285.0
11.426936860 21841.0
11.437803300 21676.0
11.448669740 21355.0
11.459536180 20889.0
11.470402620 21051.0
11.481269060 20530.0
11.492135500 20916.0
11.503001940 20524.0
11.513868380 20483.0
11.524734820 20492.0
11.535601260 20557.0
11.546467700 20482.0
11.557334140 20414.0
11.568200580 20340.0
11.579067020 20213.0
11.589933460 20407.0
11.600799900 20228.0
11.611666340 20428.0
11.622532780 20283.0
11.633399220 20150.0
11.644265660 20141.0
11.655132100 20257.0
11.665998540 20099.0
11.676864980 20140.0
11.687731420 20332.0
11.698597860 19968.0
11.709464300 20193.0
11.720330740 20401.0
11.731197180 20156.0
11.742063620 20002.0
11.752930060 20292.0
11.763796500 20089.0
11.774662940 20258.0
11.785529380 20314.0
11.796395820 19955.0
11.807262260 20381.0
11.818128700 20136.0
11.828995140 20034.0
11.839861580 20161.0
11.850728020 20030.0
11.861594460 20054.0
11.872460900 20005.0
11.883327340 20172.0
11.894193780 20030.0
11.905060220 20041.0
11.915926660 20301.0
11.926793100 20001.0
11.937659540 19944.0
11.948525980 20074.0
11.959392420 19880.0
11.970258860 20124.0
11.981125300 20056.0
11.991991740 19634.0
12.002858180 20108.0
12.013724620 19598.0
12.024591060 19993.0
12.035457500 19753.0
12.046323940 19850.0
12.057190380 19912.0
12.068056820 19647.0
12.078923260 19875.0
12.089789700 20022.0
12.100656140 19689.0
12.111522580 19828.0
12.122389020 19995.0
12.133255460 19657.0
12.144121900 19961.0
12.154988340 19742.0
12.165854780 19742.0
12.176721220 19604.0
12.187587660 19834.0
12.198454100 19805.0
12.209320540 19656.0
12.220186980 19999.0
12.231053420 19889.0
12.241919860 19529.0
12.252786300 19715.0
12.263652740 19737.0
12.274519180 19985.0
12.285385620 19569.0
12.296252060 19978.0
12.307118500 19701.0
12.317984940 19524.0
12.328851380 19669.0
12.339717820 19798.0
12.350584260 19630.0
12.361450700 19501.0
12.372317140 19789.0
12.383183580 19502.0
12.394050020 19528.0
12.404916460 19701.0
12.415782900 19598.0
12.426649340 19452.0
12.437515780 19617.0
12.448382220 19665.0
12.459248660 19815.0
12.470115100 19507.0
12.480981540 19428.0
12.491847980 19617.0
12.502714420 19564.0
12.513580860 19304.0
12.524447300 19614.0
12.535313740 19567.0
12.546180180 19496.0
12.557046620 19441.0
12.567913060 19502.0
12.578779500 19558.0
12.589645940 19542.0
12.600512380 19464.0
12.611378820 19599.0
12.622245260 19593.0
12.633111700 19705.0
12.643978140 19383.0
12.654844580 19564.0
12.665711020 19038.0
12.676577460 19501.0
12.687443900 19428.0
12.698310340 19303.0
12.709176780 19521.0
12.720043220 19365.0
12.730909660 19358.0
12.741776100 19479.0
12.752642540 19326.0
12.763508980 19409.0
12.774375420 19479.0
12.785241860 19303.0
12.796108300 19301.0
12.806974740 18937.0
12.817841180 19241.0
12.828707620 19263.0
12.839574060 19397.0
12.850440500 19400.0
12.861306940 19258.0
12.872173380 18996.0
12.883039820 19285.0
12.893906260 19331.0
12.904772700 19205.0
12.915639140 19277.0
12.926505580 19227.0
12.937372020 19425.0
12.948238460 19189.0
12.959104900 19266.0
12.969971340 19089.0
12.980837780 19366.0
12.991704220 19280.0
13.002570660 19247.0
13.013437100 18980.0
13.024303540 19096.0
13.035169980 19223.0
13.046036420 19012.0
13.056902860 19118.0
13.067769300 18975.0
13.078635740 19355.0
13.089502180 19161.0
13.100368620 19168.0
13.111235060 18805.0
13.122101500 19054.0
13.132967940 19153.0
13.143834380 18870.0
13.154700820 18930.0
13.165567260 19210.0
13.176433700 18995.0
13.187300140 19087.0
13.198166580 18958.0
13.209033020 19000.0
13.219899460 19087.0
13.230765900 19031.0
13.241632340 18978.0
13.252498780 19125.0
13.263365220 18898.0
13.274231660 18920.0
13.285098100 18987.0
13.295964540 18811.0
13.306830980 18950.0
13.317697420 19123.0
13.328563860 19047.0
13.339430300 18986.0
13.350296740 19167.0
13.361163180 18753.0
13.372029620 19086.0
13.382896060 18991.0
13.393762500 19145.0
13.404628940 18943.0
13.415495380 19095.0
13.426361820 19098.0
13.437228260 19141.0
13.448094700 18973.0
13.458961140 18899.0
13.469827580 18998.0
13.480694020 18755.0
13.491560460 19023.0
13.502426900 18649.0
13.513293340 18889.0
13.524159780 18620.0
13.535026220 18717.0
13.545892660 18714.0
13.556759100 19006.0
13.567625540 18949.0
13.578491980 18799.0
13.589358420 18855.0
13.600224860 18614.0
13.611091300 18638.0
13.621957740 18508.0
13.632824180 18959.0
13.643690620 18479.0
13.654557060 18883.0
13.665423500 19012.0
13.676289940 18930.0
13.687156380 18727.0
13.698022820 18867.0
13.708889260 18774.0
13.719755700 18504.0
13.730622140 18909.0
13.741488580 18667.0
13.752355020 18778.0
13.763221460 18580.0
13.774087900 18523.0
13.784954340 18762.0
13.795820780 18503.0
13.806687220 18902.0
13.817553660 18761.0
13.828420100 18815.0
13.839286540 18716.0
13.850152980 18550.0
13.861019420 18594.0
13.871885860 18715.0
13.882752300 18379.0
13.893618740 18800.0
13.904485180 18264.0
13.915351620 18657.0
13.926218060 18471.0
13.937084500 18773.0
13.947950940 18422.0
13.958817380 18495.0
13.969683820 18713.0
13.980550260 18489.0
13.991416700 18763.0
14.002283140 18452.0
14.013149580 18617.0
14.024016020 18510.0
14.034882460 18497.0
14.045748900 18581.0
14.056615340 18573.0
14.067481780 18614.0
14.078348220 18159.0
14.089214660 18725.0
14.100081100 18687.0
14.110947540 18518.0
14.121813980 18489.0
14.132680420 18347.0
14.143546860 18603.0
14.154413300 18297.0
14.165279740 18932.0
14.176146180 18296.0
14.187012620 18532.0
14.197879060 18446.0
14.208745500 18165.0
14.219611940 18480.0
14.230478380 18443.0
14.241344820 18550.0
14.252211260 18446.0
14.263077700 18237.0
14.273944140 18395.0
14.284810580 18243.0
14.295677020 18538.0
14.306543460 18393.0
14.317409900 18136.0
14.328276340 18586.0
14.339142780 18380.0
14.350009220 18369.0
14.360875660 18390.0
14.371742100 18114.0
14.382608540 18370.0
14.393474980 18065.0
14.404341420 18172.0
14.415207860 18544.0
14.426074300 18173.0
14.436940740 18610.0
14.447807180 18255.0
14.458673620 18642.0
14.469540060 18058.0
14.480406500 18164.0
14.491272940 18322.0
14.502139380 18477.0
14.513005820 18135.0
14.523872260 18230.0
14.534738700 18217.0
14.545605140 18309.0
14.556471580 18420.0
14.567338020 18400.0
14.578204460 18124.0
14.589070900 18289.0
14.599937340 18242.0
14.610803780 18034.0
14.621670220 18193.0
14.632536660 18101.0
14.643403100 18215.0
14.654269540 18484.0
14.665135980 17873.0
14.676002420 18206.0
14.686868860 18012.0
14.697735300 18313.0
14.708601740 17900.0
14.719468180 18330.0
14.730334620 18010.0
14.741201060 18133.0
14.752067500 17960.0
14.762933940 18339.0
14.773800380 17882.0
14.784666820 18430.0
14.795533260 18120.0
14.806399700 18019.0
14.817266140 18189.0
14.828132580 18093.0
14.838999020 17762.0
14.849865460 18227.0
14.860731900 17976.0
14.871598340 17887.0
14.882464780 18043.0
14.893331220 18082.0
14.904197660 18231.0
14.915064100 18147.0
14.925930540 17775.0
14.936796980 17831.0
14.947663420 18027.0
14.958529860 17955.0
14.969396300 17772.0
14.980262740 17867.0
14.991129180 17865.0
15.001995620 18246.0
15.012862060 17760.0
15.023728500 17787.0
15.034594940 17796.0
15.045461380 17734.0
15.056327820 18053.0
15.067194260 17725.0
15.078060700 18353.0
15.088927140 17840.0
15.099793580 17698.0
15.110660020 18197.0
15.121526460 17808.0
15.132392900 17978.0
15.143259340 17745.0
15.154125780 17854.0
15.164992220 17915.0
15.175858660 17961.0
15.186725100 17732.0
15.197591540 17859.0
15.208457980 17810.0
15.219324420 18030.0
15.230190860 17906.0
15.241057300 17740.0
15.251923740 18052.0
15.262790180 17762.0
15.273656620 18097.0
15.284523060 17898.0
15.295389500 17730.0
15.306255940 17919.0
15.317122380 18075.0
15.327988820 17798.0
15.338855260 17859.0
15.349721700 18236.0
15.360588140 17706.0
15.371454580 18207.0
15.382321020 18073.0
15.393187460 17915.0
15.404053900 18006.0
15.414920340 17747.0
15.425786780 17909.0
15.436653220 18328.0
15.447519660 17895.0
15.458386100 18148.0
15.469252540 18121.0
15.480118980 17905.0
15.490985420 18041.0
15.501851860 18166.0
15.512718300 18072.0
15.523584740 18131.0
15.534451180 17924.0
15.545317620 18365.0
15.556184060 18097.0
15.567050500 18185.0
15.577916940 18109.0
15.588783380 18557.0
15.599649820 18468.0
15.610516260 18344.0
15.621382700 18490.0
15.632249140 18499.0
15.643115580 18431.0
15.653982020 18849.0
15.664848460 18882.0
15.675714900 19081.0
15.686581340 19059.0
15.697447780 19045.0
15.708314220 19094.0
15.719180660 19499.0
15.730047100 19756.0
15.740913540 19970.0
15.751779980 20357.0
15.762646420 20450.0
15.773512860 20740.0
15.784379300 20958.0
15.795245740 21515.0
15.806112180 22286.0
15.816978620 23028.0
15.827845060 23526.0
15.838711500 24162.0
15.849577940 25111.0
15.860444380 25346.0
15.871310820 26706.0
15.882177260 26922.0
15.893043700 27192.0
15.903910140 27840.0
15.914776580 28080.0
15.925643020 28362.0
15.936509460 28226.0
15.947375900 27377.0
15.958242340 27004.0
15.969108780 26596.0
15.979975220 25663.0
15.990841660 24836.0
16.001708100 24204.0
16.012574540 23570.0
16.023440980 22760.0
16.034307420 22224.0
16.045173860 21686.0
16.056040300 21125.0
16.066906740 20572.0
16.077773180 19953.0
16.088639620 19933.0
16.099506060 19625.0
16.110372500 19161.0
16.121238940 19003.0
16.132105380 18602.0
16.142971820 18153.0
16.153838260 18243.0
16.164704700 17944.0
16.175571140 17984.0
16.186437580 17624.0
16.197304020 17479.0
16.208170460 17825.0
16.219036900 17778.0
16.229903340 17720.0
16.240769780 17709.0
16.251636220 17650.0
16.262502660 17699.0
16.273369100 17505.0
16.284235540 17606.0
16.295101980 17265.0
16.305968420 17653.0
16.316834860 17256.0
16.327701300 17540.0
16.338567740 17518.0
16.349434180 17484.0
16.360300620 17467.0
16.371167060 17499.0
16.382033500 17461.0
16.392899940 17389.0
16.403766380 17218.0
16.414632820 17283.0
16.425499260 17407.0
16.436365700 17359.0
16.447232140 17492.0
16.458098580 17319.0
16.468965020 17603.0
16.479831460 17283.0
16.490697900 17724.0
16.501564340 17369.0
16.512430780 17649.0
16.523297220 17038.0
16.534163660 17412.0
16.545030100 17272.0
16.555896540 17265.0
16.566762980 17282.0
16.577629420 17155.0
16.588495860 17410.0
16.599362300 17308.0
16.610228740 17479.0
16.621095180 17283.0
16.631961620 17337.0
16.642828060 17054.0
16.653694500 17030.0
16.664560940 17299.0
16.675427380 17461.0
16.686293820 17030.0
16.697160260 17293.0
16.708026700 17189.0
16.718893140 17020.0
16.729759580 17108.0
16.740626020 17366.0
16.751492460 17357.0
16.762358900 17239.0
16.773225340 17162.0
16.784091780 17348.0
16.794958220 17105.0
16.805824660 17225.0
16.816691100 17098.0
16.827557540 17177.0
16.838423980 17209.0
16.849290420 17345.0
16.860156860 16921.0
16.871023300 17260.0
16.881889740 16934.0
16.892756180 17379.0
16.903622620 17001.0
16.914489060 17043.0
16.925355500 17009.0
16.936221940 17192.0
16.947088380 17291.0
16.957954820 17241.0
16.968821260 17290.0
16.979687700 17047.0
16.990554140 17153.0
17.001420580 17161.0
17.012287020 17287.0
17.023153460 16915.0
17.034019900 17136.0
17.044886340 16871.0
17.055752780 17160.0
17.066619220 17153.0
17.077485660 17249.0
17.088352100 17133.0
17.099218540 17065.0
17.110084980 17179.0
17.120951420 16795.0
17.131817860 17185.0
17.142684300 17050.0
17.153550740 17165.0
17.164417180 16713.0
17.175283620 17058.0
17.186150060 17107.0
17.197016500 17287.0
17.207882940 16941.0
17.218749380 17157.0
17.229615820 17298.0
17.240482260 17078.0
17.251348700 16959.0
17.262215140 17341.0
17.273081580 17152.0
17.283948020 17366.0
17.294814460 16821.0
17.305680900 17387.0
17.316547340 17115.0
17.327413780 17275.0
17.338280220 16875.0
17.349146660 17195.0
17.360013100 17299.0
17.370879540 17471.0
17.381745980 17129.0
17.392612420 17401.0
17.403478860 17185.0
17.414345300 17639.0
17.425211740 17574.0
17.436078180 17511.0
17.446944620 17225.0
17.457811060 17614.0
17.468677500 17805.0
17.479543940 17758.0
17.490410380 17824.0
17.501276820 17450.0
17.512143260 18033.0
17.523009700 18042.0
17.533876140 18045.0
17.544742580 18368.0
17.555609020 18276.0
17.566475460 18747.0
17.577341900 18658.0
17.588208340 19483.0
17.599074780 19261.0
17.609941220 19890.0
17.620807660 19920.0
17.631674100 20518.0
17.642540540 20965.0
17.653406980 21644.0
17.664273420 22138.0
17.675139860 23321.0
17.686006300 24078.0
17.696872740 25152.0
17.707739180 26275.0
17.718605620 27296.0
17.729472060 28415.0
17.740338500 29942.0
17.751204940 31264.0
17.762071380 33167.0
17.772937820 34049.0
17.783804260 35384.0
17.794670700 35640.0
17.805537140 36336.0
17.816403580 36058.0
17.827270020 35896.0
17.838136460 34744.0
17.849002900 33866.0
17.859869340 32110.0
17.870735780 30330.0
17.881602220 28343.0
17.892468660 26485.0
17.903335100 24856.0
17.914201540 23243.0
17.925067980 21863.0
17.935934420 21134.0
17.946800860 19927.0
17.957667300 19549.0
17.968533740 18754.0
17.979400180 18341.0
17.990266620 17812.0
18.001133060 18183.0
18.011999500 17516.0
18.022865940 17547.0
18.033732380 17507.0
18.044598820 17370.0
18.055465260 17159.0
18.066331700 17197.0
18.077198140 17193.0
18.088064580 16784.0
18.098931020 17029.0
18.109797460 17330.0
18.120663900 16988.0
18.131530340 17076.0
18.142396780 17180.0
18.153263220 17233.0
18.164129660 17015.0
18.174996100 16897.0
18.185862540 16999.0
18.196728980 16911.0
18.207595420 16905.0
18.218461860 17198.0
18.229328300 16947.0
18.240194740 17081.0
18.251061180 16644.0
18.261927620 16885.0
18.272794060 16699.0
18.283660500 16919.0
18.294526940 16901.0
18.305393380 16655.0
18.316259820 16667.0
18.327126260 16844.0
18.337992700 16667.0
18.348859140 17069.0
18.359725580 17013.0
18.370592020 16714.0
18.381458460 16576.0
18.392324900 16715.0
18.403191340 16646.0
18.414057780 16841.0
18.424924220 16455.0
18.435790660 16542.0
18.446657100 16676.0
18.457523540 16821.0
18.468389980 16433.0
18.479256420 16909.0
18.490122860 16777.0
18.500989300 16756.0
18.511855740 16961.0
18.522722180 16839.0
18.533588620 16562.0
18.544455060 16593.0
18.555321500 16708.0
18.566187940 16556.0
18.577054380 16425.0
18.587920820 16895.0
18.598787260 16610.0
18.609653700 16812.0
18.620520140 16670.0
18.631386580 16741.0
18.642253020 16616.0
18.653119460 16693.0
18.663985900 16620.0
18.674852340 16793.0
18.685718780 16627.0
18.696585220 16676.0
18.707451660 16650.0
18.718318100 16571.0
18.729184540 16713.0
18.740050980 16732.0
18.750917420 16568.0
18.761783860 16697.0
18.772650300 16280.0
18.783516740 16789.0
18.794383180 16431.0
18.805249620 16479.0
18.816116060 16565.0
18.826982500 16451.0
18.837848940 16400.0
18.848715380 16522.0
18.859581820 16395.0
18.870448260 16735.0
18.881314700 16524.0
18.892181140 16845.0
18.903047580 16655.0
18.913914020 16751.0
18.924780460 16519.0
18.935646900 16537.0
18.946513340 16509.0
18.957379780 16739.0
18.968246220 16390.0
18.979112660 16635.0
18.989979100 16623.0
19.000845540 16821.0
19.011711980 16459.0
19.022578420 16754.0
19.033444860 16423.0
19.044311300 16574.0
19.055177740 16434.0
19.066044180 16848.0
19.076910620 16421.0
19.087777060 16547.0
19.098643500 16470.0
19.109509940 16578.0
19.120376380 16749.0
19.131242820 16691.0
19.142109260 16659.0
19.152975700 16472.0
19.163842140 16449.0
19.174708580 16657.0
19.185575020 16500.0
19.196441460 16689.0
19.207307900 16400.0
19.218174340 16589.0
19.229040780 16331.0
19.239907220 16544.0
19.250773660 16606.0
19.261640100 16550.0
19.272506540 16364.0
19.283372980 16633.0
19.294239420 16895.0
19.305105860 16599.0
19.315972300 16447.0
19.326838740 16671.0
19.337705180 16564.0
19.348571620 16644.0
19.359438060 16451.0
19.370304500 16610.0
19.381170940 16499.0
19.392037380 16401.0
19.402903820 16190.0
19.413770260 16432.0
19.424636700 16470.0
19.435503140 16343.0
19.446369580 16426.0
19.457236020 16545.0
19.468102460 16472.0
19.478968900 16649.0
19.489835340 16420.0
19.500701780 16797.0
19.511568220 16427.0
19.522434660 16521.0
19.533301100 16555.0
19.544167540 16363.0
19.555033980 16420.0
19.565900420 16622.0
19.576766860 16302.0
19.587633300 16629.0
19.598499740 16595.0
19.609366180 16466.0
19.620232620 16270.0
19.631099060 16400.0
19.641965500 16316.0
19.652831940 16655.0
19.663698380 16450.0
19.674564820 16370.0
19.685431260 16356.0
19.696297700 16543.0
19.707164140 16293.0
19.718030580 16602.0
19.728897020 16345.0
19.739763460 16520.0
19.750629900 16454.0
19.761496340 16685.0
19.772362780 16438.0
19.783229220 16487.0
19.794095660 16241.0
19.804962100 16636.0
19.815828540 16272.0
19.826694980 16769.0
19.837561420 16573.0
19.848427860 16389.0
19.859294300 16555.0
19.870160740 16200.0
19.881027180 16241.0
19.891893620 16398.0
19.902760060 16014.0
19.913626500 16402.0
19.924492940 16463.0
19.935359380 16358.0
19.946225820 16340.0
19.957092260 16378.0
19.967958700 16526.0
19.978825140 16313.0
19.989691580 16506.0
20.000558020 16416.0
20.011424460 16428.0
20.022290900 16551.0
20.033157340 16253.0
20.044023780 16256.0
20.054890220 16298.0
20.065756660 16295.0
20.076623100 16264.0
20.087489540 16313.0
20.098355980 16324.0
20.109222420 16441.0
20.120088860 16433.0
20.130955300 16442.0
20.141821740 16440.0
20.152688180 16375.0
20.163554620 16501.0
20.174421060 16256.0
20.185287500 16149.0
20.196153940 16283.0
20.207020380 16338.0
20.217886820 16774.0
20.228753260 16445.0
20.239619700 16641.0
20.250486140 16376.0
20.261352580 16280.0
20.272219020 16383.0
20.283085460 16094.0
20.293951900 16275.0
20.304818340 16305.0
20.315684780 16314.0
20.326551220 16488.0
20.337417660 16277.0
20.348284100 16548.0
20.359150540 16285.0
20.370016980 16334.0
20.380883420 16321.0
20.391749860 16205.0
20.402616300 16454.0
20.413482740 16537.0
20.424349180 16768.0
20.435215620 16578.0
20.446082060 16300.0
20.456948500 16405.0
20.467814940 16248.0
20.478681380 16323.0
20.489547820 16282.0
20.500414260 16325.0
20.511280700 16708.0
20.522147140 16326.0
20.533013580 16443.0
20.543880020 16410.0
20.554746460 16481.0
20.565612900 16446.0
20.576479340 16501.0
20.587345780 16595.0
20.598212220 16347.0
20.609078660 16498.0
20.619945100 16444.0
20.630811540 16514.0
20.641677980 16309.0
20.652544420 16333.0
20.663410860 16253.0
20.674277300 16286.0
20.685143740 16205.0
20.696010180 16347.0
20.706876620 16268.0
20.717743060 16707.0
20.728609500 16389.0
20.739475940 16445.0
20.750342380 16297.0
20.761208820 16540.0
20.772075260 16673.0
20.782941700 16281.0
20.793808140 16429.0
20.804674580 16339.0
20.815541020 16207.0
20.826407460 16472.0
20.837273900 16485.0
20.848140340 16328.0
20.859006780 16431.0
20.869873220 16358.0
20.880739660 16438.0
20.891606100 16536.0
20.902472540 16363.0
20.913338980 16436.0
20.924205420 16106.0
20.935071860 16318.0
20.945938300 16161.0
20.956804740 16335.0
20.967671180 16491.0
20.978537620 16358.0
20.989404060 16288.0
21.000270500 16139.0
21.011136940 16138.0
21.022003380 16567.0
21.032869820 16267.0
21.043736260 16561.0
21.054602700 16429.0
21.065469140 16245.0
21.076335580 16339.0
21.087202020 16567.0
21.098068460 16186.0
21.108934900 16377.0
21.119801340 16313.0
21.130667780 16560.0
21.141534220 16365.0
21.152400660 16608.0
21.163267100 16285.0
21.174133540 16249.0
21.184999980 16321.0
21.195866420 16510.0
21.206732860 16377.0
21.217599300 16341.0
21.228465740 16357.0
21.239332180 16240.0
21.250198620 16166.0
21.261065060 16479.0
21.271931500 16442.0
21.282797940 16412.0
21.293664380 16335.0
21.304530820 16354.0
21.315397260 16223.0
21.326263700 16394.0
21.337130140 16344.0
21.347996580 16234.0
21.358863020 16245.0
21.369729460 16642.0
21.380595900 16244.0
21.391462340 16246.0
21.402328780 16012.0
21.413195220 16078.0
21.424061660 16406.0
21.434928100 16461.0
21.445794540 16287.0
21.456660980 16496.0
21.467527420 16257.0
21.478393860 16193.0
21.489260300 15992.0
21.500126740 15984.0
21.510993180 16047.0
21.521859620 16296.0
21.532726060 16128.0
21.543592500 16239.0
21.554458940 15985.0
21.565325380 16087.0
21.576191820 16010.0
21.587058260 16393.0
21.597924700 16241.0
21.608791140 16220.0
21.619657580 16394.0
21.630524020 16511.0
21.641390460 16424.0
21.652256900 16307.0
21.663123340 16352.0
21.673989780 16402.0
21.684856220 16176.0
21.695722660 16234.0
21.706589100 16188.0
21.717455540 16504.0
21.728321980 16345.0
21.739188420 16482.0
21.750054860 16196.0
21.760921300 16427.0
21.771787740 16302.0
21.782654180 16564.0
21.793520620 16293.0
21.804387060 16258.0
21.815253500 16064.0
21.826119940 16321.0
21.836986380 16498.0
21.847852820 16426.0
21.858719260 16095.0
21.869585700 16206.0
21.880452140 16336.0
21.891318580 16323.0
21.902185020 16435.0
21.913051460 16217.0
21.923917900 16442.0
21.934784340 16277.0
21.945650780 16436.0
21.956517220 16412.0
21.967383660 16325.0
21.978250100 16622.0
21.989116540 16403.0
21.999982980 16312.0
22.010849420 16537.0
22.021715860 16410.0
22.032582300 16311.0
22.043448740 16447.0
22.054315180 16379.0
22.065181620 16419.0
22.076048060 16401.0
22.086914500 16513.0
22.097780940 16588.0
22.108647380 16631.0
22.119513820 16496.0
22.130380260 16364.0
22.141246700 16514.0
22.152113140 16652.0
22.162979580 16525.0
22.173846020 16656.0
22.184712460 16355.0
22.195578900 16650.0
22.206445340 16465.0
22.217311780 16502.0
22.228178220 16368.0
22.239044660 16672.0
22.249911100 16544.0
22.260777540 16595.0
22.271643980 16422.0
22.282510420 16572.0
22.293376860 16667.0
22.304243300 16919.0
22.315109740 16765.0
22.325976180 16856.0
22.336842620 16722.0
22.347709060 16967.0
22.358575500 17034.0
22.369441940 17178.0
22.380308380 17117.0
22.391174820 17425.0
22.402041260 17647.0
22.412907700 17924.0
22.423774140 18017.0
22.434640580 18944.0
22.445507020 18915.0
22.456373460 19633.0
22.467239900 19807.0
22.478106340 20509.0
22.488972780 20900.0
22.499839220 22056.0
22.510705660 22717.0
22.521572100 23533.0
22.532438540 24574.0
22.543304980 24964.0
22.554171420 25349.0
22.565037860 25934.0
22.575904300 25797.0
22.586770740 25816.0
22.597637180 25548.0
22.608503620 24492.0
22.619370060 23982.0
22.630236500 23117.0
22.641102940 21977.0
22.651969380 21464.0
22.662835820 20556.0
22.673702260 19736.0
22.684568700 19053.0
22.695435140 18200.0
22.706301580 18029.0
22.717168020 17509.0
22.728034460 17137.0
22.738900900 17101.0
22.749767340 16634.0
22.760633780 16860.0
22.771500220 16560.0
22.782366660 16541.0
22.793233100 16909.0
22.804099540 16559.0
22.814965980 16517.0
22.825832420 16601.0
22.836698860 16230.0
22.847565300 16289.0
22.858431740 16317.0
22.869298180 16489.0
22.880164620 16221.0
22.891031060 16614.0
22.901897500 16125.0
22.912763940 16399.0
22.923630380 16233.0
22.934496820 16316.0
22.945363260 16317.0
22.956229700 16270.0
22.967096140 16353.0
22.977962580 16504.0
22.988829020 16057.0
22.999695460 16507.0
23.010561900 16307.0
23.021428340 16275.0
23.032294780 16156.0
23.043161220 16433.0
23.054027660 16383.0
23.064894100 16296.0
23.075760540 16146.0
23.086626980 16218.0
23.097493420 16218.0
23.108359860 16231.0
23.119226300 16263.0
23.130092740 16146.0
23.140959180 16256.0
23.151825620 16133.0
23.162692060 16321.0
23.173558500 16200.0
23.184424940 16060.0
23.195291380 16281.0
23.206157820 16196.0
23.217024260 16192.0
23.227890700 15946.0
23.238757140 16293.0
23.249623580 16135.0
23.260490020 16198.0
23.271356460 16308.0
23.282222900 16336.0
23.293089340 16056.0
23.303955780 16210.0
23.314822220 16011.0
23.325688660 16292.0
23.336555100 15921.0
23.347421540 16204.0
23.358287980 15910.0
23.369154420 16115.0
23.380020860 16289.0
23.390887300 16442.0
23.401753740 16124.0
23.412620180 16063.0
23.423486620 16177.0
23.434353060 16301.0
23.445219500 15966.0
23.456085940 16337.0
23.466952380 16353.0
23.477818820 16203.0
23.488685260 16074.0
23.499551700 15755.0
23.510418140 15880.0
23.521284580 16063.0
23.532151020 15945.0
23.543017460 16159.0
23.553883900 15865.0
23.564750340 16448.0
23.575616780 16001.0
23.586483220 16154.0
23.597349660 16019.0
23.608216100 16187.0
23.619082540 16206.0
23.629948980 16294.0
23.640815420 16278.0
23.651681860 15915.0
23.662548300 15851.0
23.673414740 15967.0
23.684281180 15850.0
23.695147620 16024.0
23.706014060 15902.0
23.716880500 15870.0
23.727746940 15972.0
23.738613380 16000.0
23.749479820 15994.0
23.760346260 16007.0
23.771212700 15884.0
23.782079140 15972.0
23.792945580 16008.0
23.803812020 16013.0
23.814678460 16243.0
23.825544900 15918.0
23.836411340 16172.0
23.847277780 16090.0
23.858144220 15870.0
23.869010660 16060.0
23.879877100 15986.0
23.890743540 16192.0
23.901609980 16078.0
23.912476420 16065.0
23.923342860 16027.0
23.934209300 16128.0
23.945075740 15921.0
23.955942180 16223.0
23.966808620 16154.0
23.977675060 15916.0
23.988541500 16040.0
23.999407940 16207.0
24.010274380 15983.0
24.021140820 15941.0
24.032007260 16041.0
24.042873700 15991.0
24.053740140 15810.0
24.064606580 16063.0
24.075473020 16060.0
24.086339460 15994.0
24.097205900 16287.0
24.108072340 16146.0
24.118938780 16255.0
24.129805220 16005.0
24.140671660 16104.0
24.151538100 16052.0
24.162404540 15760.0
24.173270980 15957.0
24.184137420 15884.0
24.195003860 16172.0
24.205870300 16210.0
24.216736740 16111.0
24.227603180 16159.0
24.238469620 16004.0
24.249336060 15992.0
24.260202500 16103.0
24.271068940 16074.0
24.281935380 16072.0
24.292801820 16256.0
24.303668260 16267.0
24.314534700 16194.0
24.325401140 16408.0
24.336267580 15966.0
24.347134020 16135.0
24.358000460 16187.0
24.368866900 16304.0
24.379733340 16215.0
24.390599780 16214.0
24.401466220 16321.0
24.412332660 16526.0
24.423199100 16305.0
24.434065540 16404.0
24.444931980 16325.0
24.455798420 16478.0
24.466664860 16463.0
24.477531300 16482.0
24.488397740 16573.0
24.499264180 16487.0
24.510130620 16509.0
24.520997060 16734.0
24.531863500 16352.0
24.542729940 16715.0
24.553596380 16615.0
24.564462820 16591.0
24.575329260 16759.0
24.586195700 16905.0
24.597062140 16721.0
24.607928580 16977.0
24.618795020 17035.0
24.629661460 17048.0
24.640527900 16849.0
24.651394340 17064.0
24.662260780 17372.0
24.673127220 17450.0
24.683993660 17567.0
24.694860100 17682.0
24.705726540 17850.0
24.716592980 17870.0
24.727459420 17933.0
24.738325860 18209.0
24.749192300 17998.0
24.760058740 18115.0
24.770925180 17622.0
24.781791620 17927.0
24.792658060 17627.0
24.803524500 17657.0
24.814390940 17764.0
24.825257380 17489.0
24.836123820 17288.0
24.846990260 17534.0
24.857856700 17607.0
24.868723140 17583.0
24.879589580 17632.0
24.890456020 17639.0
24.901322460 17734.0
24.912188900 17961.0
24.923055340 17975.0
24.933921780 18262.0
24.944788220 18470.0
24.955654660 18515.0
24.966521100 19046.0
24.977387540 19425.0
24.988253980 19615.0
24.999120420 20151.0
25.009986860 20723.0
25.020853300 21311.0
25.031719740 22242.0
25.042586180 22895.0
25.053452620 23979.0
25.064319060 24928.0
25.075185500 26076.0
25.086051940 27531.0
25.096918380 29030.0
25.107784820 30690.0
25.118651260 32117.0
25.129517700 33979.0
25.140384140 34929.0
25.151250580 36351.0
25.162117020 37539.0
25.172983460 38418.0
25.183849900 38872.0
25.194716340 38746.0
25.205582780 38500.0
25.216449220 38490.0
25.227315660 38396.0
25.238182100 38195.0
25.249048540 37932.0
25.259914980 38062.0
25.270781420 37550.0
25.281647860 38036.0
25.292514300 37933.0
25.303380740 38005.0
25.314247180 37677.0
25.325113620 37163.0
25.335980060 36283.0
25.346846500 34484.0
25.357712940 33662.0
25.368579380 31742.0
25.379445820 30147.0
25.390312260 28631.0
25.401178700 27105.0
25.412045140 25239.0
25.422911580 23524.0
25.433778020 22041.0
25.444644460 20939.0
25.455510900 20180.0
25.466377340 19159.0
25.477243780 18484.0
25.488110220 18250.0
25.498976660 17584.0
25.509843100 17512.0
25.520709540 17148.0
25.531575980 17314.0
25.542442420 17247.0
25.553308860 16967.0
25.564175300 16909.0
25.575041740 16828.0
25.585908180 16822.0
25.596774620 16773.0
25.607641060 16649.0
25.618507500 16787.0
25.629373940 16661.0
25.640240380 16606.0
25.651106820 16774.0
25.661973260 16564.0
25.672839700 16410.0
25.683706140 16367.0
25.694572580 16499.0
25.705439020 16451.0
25.716305460 16503.0
25.727171900 16328.0
25.738038340 16562.0
25.748904780 16527.0
25.759771220 16553.0
25.770637660 16437.0
25.781504100 16624.0
25.792370540 16633.0
25.803236980 16586.0
25.814103420 16547.0
25.824969860 16473.0
25.835836300 16464.0
25.846702740 16695.0
25.857569180 16671.0
25.868435620 16931.0
25.879302060 16882.0
25.890168500 17104.0
25.901034940 17011.0
25.911901380 17429.0
25.922767820 17456.0
25.933634260 17881.0
25.944500700 18028.0
25.955367140 17982.0
25.966233580 18217.0
25.977100020 18196.0
25.987966460 18305.0
25.998832900 18525.0
26.009699340 18476.0
26.020565780 18501.0
26.031432220 18101.0
26.042298660 18251.0
26.053165100 18157.0
26.064031540 17774.0
26.074897980 17902.0
26.085764420 17548.0
26.096630860 17317.0
26.107497300 17462.0
26.118363740 17253.0
26.129230180 17168.0
26.140096620 17139.0
26.150963060 17333.0
26.161829500 17043.0
26.172695940 17132.0
26.183562380 17179.0
26.194428820 17029.0
26.205295260 17092.0
26.216161700 17462.0
26.227028140 17550.0
26.237894580 17476.0
26.248761020 17865.0
26.259627460 17638.0
26.270493900 17582.0
26.281360340 17725.0
26.292226780 17816.0
26.303093220 18236.0
26.313959660 18239.0
26.324826100 18352.0
26.335692540 18368.0
26.346558980 18422.0
26.357425420 18725.0
26.368291860 19017.0
26.379158300 19308.0
26.390024740 19445.0
26.400891180 19556.0
26.411757620 19854.0
26.422624060 19929.0
26.433490500 20543.0
26.444356940 21230.0
26.455223380 21629.0
26.466089820 22062.0
26.476956260 22329.0
26.487822700 23126.0
26.498689140 23869.0
26.509555580 24778.0
26.520422020 25908.0
26.531288460 26756.0
26.542154900 28113.0
26.553021340 29272.0
26.563887780 31233.0
26.574754220 32724.0
26.585620660 35112.0
26.596487100 36668.0
26.607353540 39009.0
26.618219980 41186.0
26.629086420 43521.0
26.639952860 46366.0
26.650819300 48277.0
26.661685740 50613.0
26.672552180 51689.0
26.683418620 53071.0
26.694285060 53726.0
26.705151500 54339.0
26.716017940 54046.0
26.726884380 52702.0
26.737750820 52161.0
26.748617260 50175.0
26.759483700 48170.0
26.770350140 46977.0
26.781216580 43860.0
26.792083020 41819.0
26.802949460 39478.0
26.813815900 37072.0
26.824682340 35329.0
26.835548780 33490.0
26.846415220 31603.0
26.857281660 29877.0
26.868148100 28710.0
26.879014540 27182.0
26.889880980 26674.0
26.900747420 25324.0
26.911613860 24776.0
26.922480300 23520.0
26.933346740 23052.0
26.944213180 22673.0
26.955079620 21917.0
26.965946060 21544.0
26.976812500 21306.0
26.987678940 20820.0
26.998545380 20305.0
27.009411820 19903.0
27.020278260 20145.0
27.031144700 19332.0
27.042011140 19178.0
27.052877580 18745.0
27.063744020 18912.0
27.074610460 18740.0
27.085476900 18429.0
27.096343340 18139.0
27.107209780 17837.0
27.118076220 17649.0
27.128942660 17459.0
27.139809100 17632.0
27.150675540 17503.0
27.161541980 17144.0
27.172408420 17065.0
27.183274860 17206.0
27.194141300 16851.0
27.205007740 16728.0
27.215874180 16696.0
27.226740620 16731.0
27.237607060 16722.0
27.248473500 16553.0
27.259339940 16639.0
27.270206380 16438.0
27.281072820 16222.0
27.291939260 16428.0
27.302805700 16071.0
27.313672140 16403.0
27.324538580 15940.0
27.335405020 16294.0
27.346271460 16187.0
27.357137900 15929.0
27.368004340 15970.0
27.378870780 16079.0
27.389737220 15846.0
27.400603660 16058.0
27.411470100 15766.0
27.422336540 15813.0
27.433202980 15815.0
27.444069420 15583.0
27.454935860 16032.0
27.465802300 15349.0
27.476668740 15523.0
27.487535180 15544.0
27.498401620 15458.0
27.509268060 15691.0
27.520134500 15679.0
27.531000940 15495.0
27.541867380 15307.0
27.552733820 15469.0
27.563600260 15504.0
27.574466700 15494.0
27.585333140 15306.0
27.596199580 15644.0
27.607066020 15397.0
27.617932460 15091.0
27.628798900 15272.0
27.639665340 15298.0
27.650531780 15404.0
27.661398220 15310.0
27.672264660 15294.0
27.683131100 15422.0
27.693997540 15526.0
27.704863980 15357.0
27.715730420 15161.0
27.726596860 15338.0
27.737463300 15302.0
27.748329740 15049.0
27.759196180 15196.0
27.770062620 14989.0
27.780929060 14895.0
27.791795500 15332.0
27.802661940 14971.0
27.813528380 15423.0
27.824394820 15059.0
27.835261260 15180.0
27.846127700 14911.0
27.856994140 15294.0
27.867860580 15320.0
27.878727020 15163.0
27.889593460 15179.0
27.900459900 15202.0
27.911326340 15188.0
27.922192780 15066.0
27.933059220 15077.0
27.943925660 14999.0
27.954792100 14944.0
27.965658540 15298.0
27.976524980 15280.0
27.987391420 15218.0
27.998257860 15249.0
28.009124300 15395.0
28.019990740 15029.0
28.030857180 15085.0
28.041723620 15004.0
28.052590060 15226.0
28.063456500 15089.0
28.074322940 15351.0
28.085189380 15465.0
28.096055820 15241.0
28.106922260 15460.0
28.117788700 15371.0
28.128655140 15138.0
28.139521580 15305.0
28.150388020 15380.0
28.161254460 15290.0
28.172120900 15405.0
28.182987340 15539.0
28.193853780 15426.0
28.204720220 15590.0
28.215586660 15809.0
28.226453100 15762.0
28.237319540 15922.0
28.248185980 15835.0
28.259052420 16025.0
28.269918860 15955.0
28.280785300 16129.0
28.291651740 16392.0
28.302518180 16517.0
28.313384620 16491.0
28.324251060 16422.0
28.335117500 16562.0
28.345983940 16583.0
28.356850380 16795.0
28.367716820 16901.0
28.378583260 16696.0
28.389449700 16595.0
28.400316140 16392.0
28.411182580 16660.0
28.422049020 16516.0
28.432915460 16346.0
28.443781900 16114.0
28.454648340 16186.0
28.465514780 16285.0
28.476381220 15700.0
28.487247660 15934.0
28.498114100 15866.0
28.508980540 15682.0
28.519846980 15728.0
28.530713420 15685.0
28.541579860 15720.0
28.552446300 15918.0
28.563312740 15683.0
28.574179180 15790.0
28.585045620 15960.0
28.595912060 15993.0
28.606778500 16058.0
28.617644940 16130.0
28.628511380 16303.0
28.639377820 16431.0
28.650244260 17069.0
28.661110700 17057.0
28.671977140 17751.0
28.682843580 18014.0
28.693710020 18532.0
28.704576460 19161.0
28.715442900 19766.0
28.726309340 20418.0
28.737175780 21557.0
28.748042220 21964.0
28.758908660 22707.0
28.769775100 23310.0
28.780641540 23694.0
28.791507980 24231.0
28.802374420 24277.0
28.813240860 24346.0
28.824107300 24174.0
28.834973740 23926.0
28.845840180 23492.0
28.856706620 23374.0
28.867573060 22477.0
28.878439500 21882.0
28.889305940 21184.0
28.900172380 20530.0
28.911038820 19836.0
28.921905260 19136.0
28.932771700 18324.0
28.943638140 17716.0
28.954504580 17337.0
28.965371020 16746.0
28.976237460 15926.0
28.987103900 15932.0
28.997970340 15584.0
29.008836780 14901.0
29.019703220 15123.0
29.030569660 14836.0
29.041436100 14682.0
29.052302540 14709.0
29.063168980 14579.0
29.074035420 14586.0
29.084901860 14459.0
29.095768300 14605.0
29.106634740 14560.0
29.117501180 14371.0
29.128367620 14426.0
29.139234060 14483.0
29.150100500 14308.0
29.160966940 14397.0
29.171833380 14331.0
29.182699820 14461.0
29.193566260 14386.0
29.204432700 14331.0
29.215299140 14362.0
29.226165580 14302.0
29.237032020 14554.0
29.247898460 14400.0
29.258764900 14592.0
29.269631340 14748.0
29.280497780 14637.0
29.291364220 14565.0
29.302230660 14577.0
29.313097100 14906.0
29.323963540 15005.0
29.334829980 15358.0
29.345696420 15283.0
29.356562860 15913.0
29.367429300 16085.0
29.378295740 16608.0
29.389162180 17414.0
29.400028620 17919.0
29.410895060 18703.0
29.421761500 19698.0
29.432627940 20527.0
29.443494380 21552.0
29.454360820 22327.0
29.465227260 23251.0
29.476093700 23860.0
29.486960140 24258.0
29.497826580 24192.0
29.508693020 24324.0
29.519559460 23773.0
29.530425900 23448.0
29.541292340 22587.0
29.552158780 22115.0
29.563025220 21085.0
29.573891660 20554.0
29.584758100 19251.0
29.595624540 18385.0
29.606490980 17593.0
29.617357420 17138.0
29.628223860 16207.0
29.639090300 15598.0
29.649956740 15261.0
29.660823180 14619.0
29.671689620 14570.0
29.682556060 14327.0
29.693422500 13923.0
29.704288940 14127.0
29.715155380 13717.0
29.726021820 13880.0
29.736888260 13853.0
29.747754700 13781.0
29.758621140 13935.0
29.769487580 13807.0
29.780354020 13531.0
29.791220460 13798.0
29.802086900 13667.0
29.812953340 13856.0
29.823819780 13635.0
29.834686220 13582.0
29.845552660 13702.0
29.856419100 13553.0
29.867285540 13520.0
29.878151980 13694.0
29.889018420 13622.0
29.899884860 13716.0
29.910751300 13598.0
29.921617740 13518.0
29.932484180 13411.0
29.943350620 13536.0
29.954217060 13311.0
29.965083500 13426.0
29.975949940 13620.0
29.986816380 13720.0
29.997682820 13651.0
30.008549260 13515.0
30.019415700 13275.0
30.030282140 13181.0
30.041148580 13417.0
30.052015020 13441.0
30.062881460 13220.0
30.073747900 13690.0
30.084614340 13145.0
30.095480780 13471.0
30.106347220 13228.0
30.117213660 13411.0
30.128080100 13203.0
30.138946540 13245.0
30.149812980 13252.0
30.160679420 13261.0
30.171545860 13307.0
30.182412300 13245.0
30.193278740 13380.0
30.204145180 13274.0
30.215011620 13430.0
30.225878060 13151.0
30.236744500 13078.0
30.247610940 13218.0
30.258477380 13440.0
30.269343820 13245.0
30.280210260 13308.0
30.291076700 13334.0
30.301943140 13201.0
30.312809580 13341.0
30.323676020 13349.0
30.334542460 13417.0
30.345408900 13198.0
30.356275340 13095.0
30.367141780 13171.0
30.378008220 13314.0
30.388874660 13358.0
30.399741100 13173.0
30.410607540 13462.0
30.421473980 13120.0
30.432340420 12985.0
30.443206860 13278.0
30.454073300 13107.0
30.464939740 13340.0
30.475806180 13056.0
30.486672620 13115.0
30.497539060 13025.0
30.508405500 13252.0
30.519271940 13068.0
30.530138380 13063.0
30.541004820 13045.0
30.551871260 13125.0
30.562737700 13153.0
30.573604140 13010.0
30.584470580 13166.0
30.595337020 13031.0
30.606203460 13037.0
30.617069900 13049.0
30.627936340 13139.0
30.638802780 13241.0
30.649669220 13000.0
30.660535660 13042.0
30.671402100 12785.0
30.682268540 13245.0
30.693134980 12801.0
30.704001420 13016.0
30.714867860 12693.0
30.725734300 13038.0
30.736600740 13261.0
30.747467180 13152.0
30.758333620 13015.0
30.769200060 13028.0
30.780066500 12897.0
30.790932940 13005.0
30.801799380 12989.0
30.812665820 12981.0
30.823532260 12978.0
30.834398700 12975.0
30.845265140 12820.0
30.856131580 12977.0
30.866998020 12837.0
30.877864460 13050.0
30.888730900 12852.0
30.899597340 12967.0
30.910463780 12889.0
30.921330220 13041.0
30.932196660 12858.0
30.943063100 13131.0
30.953929540 12727.0
30.964795980 12834.0
30.975662420 12871.0
30.986528860 12694.0
30.997395300 12755.0
31.008261740 12770.0
31.019128180 12958.0
31.029994620 12875.0
31.040861060 12897.0
31.051727500 12866.0
31.062593940 12767.0
31.073460380 12874.0
31.084326820 12759.0
31.095193260 12871.0
31.106059700 12614.0
31.116926140 12861.0
31.127792580 12658.0
31.138659020 12819.0
31.149525460 12786.0
31.160391900 12697.0
31.171258340 12607.0
31.182124780 12718.0
31.192991220 12730.0
31.203857660 12796.0
31.214724100 12792.0
31.225590540 12844.0
31.236456980 12942.0
31.247323420 12971.0
31.258189860 12852.0
31.269056300 13145.0
31.279922740 12802.0
31.290789180 13089.0
31.301655620 12905.0
31.312522060 13076.0
31.323388500 13038.0
31.334254940 12857.0
31.345121380 12829.0
31.355987820 13036.0
31.366854260 12835.0
31.377720700 13097.0
31.388587140 12931.0
31.399453580 13073.0
31.410320020 12769.0
31.421186460 13155.0
31.432052900 12822.0
31.442919340 12955.0
31.453785780 12785.0
31.464652220 12809.0
31.475518660 13079.0
31.486385100 12915.0
31.497251540 12737.0
31.508117980 12777.0
31.518984420 12774.0
31.529850860 12801.0
31.540717300 12625.0
31.551583740 12763.0
31.562450180 12612.0
31.573316620 12994.0
31.584183060 12663.0
31.595049500 12735.0
31.605915940 12489.0
31.616782380 12693.0
31.627648820 12607.0
31.638515260 12686.0
31.649381700 12734.0
31.660248140 12628.0
31.671114580 12716.0
31.681981020 12581.0
31.692847460 12919.0
31.703713900 12770.0
31.714580340 12577.0
31.725446780 12722.0
31.736313220 12383.0
31.747179660 12808.0
31.758046100 12393.0
31.768912540 12565.0
31.779778980 12492.0
31.790645420 12628.0
31.801511860 12442.0
31.812378300 12789.0
31.823244740 12534.0
31.834111180 12577.0
31.844977620 12583.0
31.855844060 12539.0
31.866710500 12506.0
31.877576940 12569.0
31.888443380 12454.0
31.899309820 12601.0
31.910176260 12334.0
31.921042700 12282.0
31.931909140 12524.0
31.942775580 12356.0
31.953642020 12425.0
31.964508460 12317.0
31.975374900 12308.0
31.986241340 12520.0
31.997107780 12462.0
32.007974220 12473.0
32.018840660 12265.0
32.029707100 12532.0
32.040573540 12232.0
32.051439980 12333.0
32.062306420 12264.0
32.073172860 12534.0
32.084039300 12393.0
32.094905740 12467.0
32.105772180 12333.0
32.116638620 12483.0
32.127505060 12237.0
32.138371500 12297.0
32.149237940 12014.0
32.160104380 12442.0
32.170970820 12260.0
32.181837260 12455.0
32.192703700 12437.0
32.203570140 12399.0
32.214436580 12405.0
32.225303020 12418.0
32.236169460 12226.0
32.247035900 12501.0
32.257902340 12175.0
32.268768780 12601.0
32.279635220 12520.0
32.290501660 12609.0
32.301368100 12225.0
32.312234540 12469.0
32.323100980 12455.0
32.333967420 12278.0
32.344833860 12437.0
32.355700300 12607.0
32.366566740 12204.0
32.377433180 12700.0
32.388299620 12633.0
32.399166060 12632.0
32.410032500 12633.0
32.420898940 13026.0
32.431765380 12979.0
32.442631820 13017.0
32.453498260 12988.0
32.464364700 13389.0
32.475231140 13641.0
32.486097580 14070.0
32.496964020 13998.0
32.507830460 14899.0
32.518696900 15300.0
32.529563340 15919.0
32.540429780 16913.0
32.551296220 17592.0
32.562162660 18487.0
32.573029100 19649.0
32.583895540 20711.0
32.594761980 21600.0
32.605628420 22437.0
32.616494860 23062.0
32.627361300 23543.0
32.638227740 23768.0
32.649094180 23324.0
32.659960620 23059.0
32.670827060 22225.0
32.681693500 21503.0
32.692559940 20627.0
32.703426380 19825.0
32.714292820 18895.0
32.725159260 18361.0
32.736025700 17119.0
32.746892140 16805.0
32.757758580 15675.0
32.768625020 15032.0
32.779491460 14406.0
32.790357900 14019.0
32.801224340 13475.0
32.812090780 13061.0
32.822957220 12782.0
32.833823660 12599.0
32.844690100 12420.0
32.855556540 12516.0
32.866422980 12569.0
32.877289420 12471.0
32.888155860 12221.0
32.899022300 12353.0
32.909888740 12366.0
32.920755180 12283.0
32.931621620 12211.0
32.942488060 12246.0
32.953354500 12118.0
32.964220940 12153.0
32.975087380 12158.0
32.985953820 12300.0
32.996820260 12420.0
33.007686700 12279.0
33.018553140 12346.0
33.029419580 12335.0
33.040286020 12066.0
33.051152460 12548.0
33.062018900 12531.0
33.072885340 12490.0
33.083751780 12359.0
33.094618220 12432.0
33.105484660 12724.0
33.116351100 12576.0
33.127217540 12607.0
33.138083980 12795.0
33.148950420 12663.0
33.159816860 12684.0
33.170683300 12490.0
33.181549740 12951.0
33.192416180 12396.0
33.203282620 12569.0
33.214149060 12562.0
33.225015500 12482.0
33.235881940 12479.0
33.246748380 12615.0
33.257614820 12378.0
33.268481260 12618.0
33.279347700 12449.0
33.290214140 12488.0
33.301080580 12292.0
33.311947020 12347.0
33.322813460 12212.0
33.333679900 12495.0
33.344546340 12362.0
33.355412780 12458.0
33.366279220 12362.0
33.377145660 12035.0
33.388012100 12338.0
33.398878540 12674.0
33.409744980 12360.0
33.420611420 12443.0
33.431477860 12448.0
33.442344300 12628.0
33.453210740 12698.0
33.464077180 12741.0
33.474943620 12822.0
33.485810060 13013.0
33.496676500 13126.0
33.507542940 13236.0
33.518409380 13174.0
33.529275820 13852.0
33.540142260 13740.0
33.551008700 14272.0
33.561875140 14635.0
33.572741580 15129.0
33.583608020 15628.0
33.594474460 16330.0
33.605340900 16889.0
33.616207340 17693.0
33.627073780 18066.0
33.637940220 18552.0
33.648806660 19039.0
33.659673100 19554.0
33.670539540 19803.0
33.681405980 19834.0
33.692272420 19873.0
33.703138860 20193.0
33.714005300 20111.0
33.724871740 20494.0
33.735738180 20516.0
33.746604620 20813.0
33.757471060 21013.0
33.768337500 21919.0
33.779203940 22226.0
33.790070380 23115.0
33.800936820 23565.0
33.811803260 24492.0
33.822669700 25298.0
33.833536140 26241.0
33.844402580 26977.0
33.855269020 27479.0
33.866135460 28189.0
33.877001900 28740.0
33.887868340 28806.0
33.898734780 28561.0
33.909601220 28454.0
33.920467660 28439.0
33.931334100 27674.0
33.942200540 27289.0
33.953066980 26286.0
33.963933420 25901.0
33.974799860 24593.0
33.985666300 24036.0
33.996532740 22958.0
34.007399180 22169.0
34.018265620 21323.0
34.029132060 20380.0
34.039998500 19310.0
34.050864940 18917.0
34.061731380 17882.0
34.072597820 17422.0
34.083464260 16838.0
34.094330700 16363.0
34.105197140 15853.0
34.116063580 15615.0
34.126930020 14971.0
34.137796460 14794.0
34.148662900 14615.0
34.159529340 14292.0
34.170395780 13928.0
34.181262220 14229.0
34.192128660 13551.0
34.202995100 13509.0
34.213861540 13329.0
34.224727980 13358.0
34.235594420 13005.0
34.246460860 13086.0
34.257327300 12788.0
34.268193740 12586.0
34.279060180 12642.0
34.289926620 12587.0
34.300793060 12428.0
34.311659500 12300.0
34.322525940 12458.0
34.333392380 12279.0
34.344258820 12142.0
34.355125260 12261.0
34.365991700 12073.0
34.376858140 12021.0
34.387724580 11982.0
34.398591020 12054.0
34.409457460 11847.0
34.420323900 12040.0
34.431190340 12071.0
34.442056780 11979.0
34.452923220 12164.0
34.463789660 11996.0
34.474656100 12111.0
34.485522540 12073.0
34.496388980 12319.0
34.507255420 12155.0
34.518121860 12496.0
34.528988300 12542.0
34.539854740 12889.0
34.550721180 12959.0
34.561587620 13246.0
34.572454060 13451.0
34.583320500 13416.0
34.594186940 13752.0
34.605053380 13655.0
34.615919820 13805.0
34.626786260 13877.0
34.637652700 13879.0
34.648519140 13441.0
34.659385580 13312.0
34.670252020 13024.0
34.681118460 13032.0
34.691984900 12824.0
34.702851340 12637.0
34.713717780 12286.0
34.724584220 12210.0
34.735450660 11810.0
34.746317100 11936.0
34.757183540 11640.0
34.768049980 11465.0
34.778916420 11418.0
34.789782860 11339.0
34.800649300 10870.0
34.811515740 10908.0
34.822382180 11111.0
34.833248620 10906.0
34.844115060 10927.0
34.854981500 10656.0
34.865847940 10939.0
34.876714380 10696.0
34.887580820 10845.0
34.898447260 10755.0
34.909313700 10743.0
34.920180140 10740.0
34.931046580 10624.0
34.941913020 10832.0
34.952779460 10761.0
34.963645900 10875.0
34.974512340 10591.0
34.985378780 10801.0
34.996245220 10658.0
35.007111660 10760.0
35.017978100 10720.0
35.028844540 10773.0
35.039710980 10654.0
35.050577420 10675.0
35.061443860 10491.0
35.072310300 10638.0
35.083176740 10473.0
35.094043180 10781.0
35.104909620 10668.0
35.115776060 10547.0
35.126642500 10427.0
35.137508940 10512.0
35.148375380 10457.0
35.159241820 10462.0
35.170108260 10492.0
35.180974700 10448.0
35.191841140 10171.0
35.202707580 10459.0
35.213574020 10500.0
35.224440460 10515.0
35.235306900 10579.0
35.246173340 10407.0
35.257039780 10566.0
35.267906220 10485.0
35.278772660 10276.0
35.289639100 10452.0
35.300505540 10410.0
35.311371980 10515.0
35.322238420 10535.0
35.333104860 10389.0
35.343971300 10559.0
35.354837740 10467.0
35.365704180 10295.0
35.376570620 10254.0
35.387437060 10076.0
35.398303500 10625.0
35.409169940 10537.0
35.420036380 10355.0
35.430902820 10621.0
35.441769260 10429.0
35.452635700 10346.0
35.463502140 10690.0
35.474368580 10484.0
35.485235020 10767.0
35.496101460 10475.0
35.506967900 10629.0
35.517834340 10402.0
35.528700780 10521.0
35.539567220 10259.0
35.550433660 10614.0
35.561300100 10425.0
35.572166540 10653.0
35.583032980 10620.0
35.593899420 10749.0
35.604765860 10785.0
35.615632300 11083.0
35.626498740 11033.0
35.637365180 11353.0
35.648231620 11392.0
35.659098060 11538.0
35.669964500 11746.0
35.680830940 12057.0
35.691697380 12567.0
35.702563820 12885.0
35.713430260 13655.0
35.724296700 13947.0
35.735163140 14634.0
35.746029580 15443.0
35.756896020 16609.0
35.767762460 16987.0
35.778628900 17768.0
35.789495340 18330.0
35.800361780 18878.0
35.811228220 19432.0
35.822094660 19300.0
35.832961100 19566.0
35.843827540 18996.0
35.854693980 18907.0
35.865560420 18620.0
35.876426860 18068.0
35.887293300 17674.0
35.898159740 17173.0
35.909026180 16799.0
35.919892620 16474.0
35.930759060 16405.0
35.941625500 15816.0
35.952491940 15421.0
35.963358380 14838.0
35.974224820 14372.0
35.985091260 14211.0
35.995957700 13678.0
36.006824140 13421.0
36.017690580 12822.0
36.028557020 12740.0
36.039423460 12432.0
36.050289900 12040.0
36.061156340 11713.0
36.072022780 11645.0
36.082889220 11620.0
36.093755660 11392.0
36.104622100 11126.0
36.115488540 10948.0
36.126354980 10636.0
36.137221420 10840.0
36.148087860 10410.0
36.158954300 10324.0
36.169820740 10061.0
36.180687180 10124.0
36.191553620 10092.0
36.202420060 10100.0
36.213286500 10018.0
36.224152940 10113.0
36.235019380 10037.0
36.245885820 9943.0
36.256752260 9771.0
36.267618700 9930.0
36.278485140 9882.0
36.289351580 9907.0
36.300218020 9969.0
36.311084460 9572.0
36.321950900 9881.0
36.332817340 9740.0
36.343683780 9652.0
36.354550220 9843.0
36.365416660 9931.0
36.376283100 9964.0
36.387149540 9788.0
36.398015980 9868.0
36.408882420 9784.0
36.419748860 9722.0
36.430615300 9636.0
36.441481740 9824.0
36.452348180 9585.0
36.463214620 9781.0
36.474081060 9790.0
36.484947500 9770.0
36.495813940 9667.0
36.506680380 9784.0
36.517546820 9745.0
36.528413260 9875.0
36.539279700 9640.0
36.550146140 9933.0
36.561012580 9922.0
36.571879020 9875.0
36.582745460 9518.0
36.593611900 9941.0
36.604478340 9799.0
36.615344780 9842.0
36.626211220 9828.0
36.637077660 9718.0
36.647944100 9685.0
36.658810540 9818.0
36.669676980 9788.0
36.680543420 9893.0
36.691409860 9918.0
36.702276300 9681.0
36.713142740 9876.0
36.724009180 9885.0
36.734875620 9659.0
36.745742060 9865.0
36.756608500 9778.0
36.767474940 9949.0
36.778341380 9660.0
36.789207820 9840.0
36.800074260 9813.0
36.810940700 9904.0
36.821807140 9704.0
36.832673580 9829.0
36.843540020 9846.0
36.854406460 9790.0
36.865272900 9882.0
36.876139340 9843.0
36.887005780 9844.0
36.897872220 9764.0
36.908738660 9700.0
36.919605100 10006.0
36.930471540 9741.0
36.941337980 9733.0
36.952204420 9672.0
36.963070860 9632.0
36.973937300 9842.0
36.984803740 9655.0
36.995670180 9803.0
37.006536620 9759.0
37.017403060 9763.0
37.028269500 9801.0
37.039135940 9687.0
37.050002380 9833.0
37.060868820 9687.0
37.071735260 9924.0
37.082601700 9822.0
37.093468140 9776.0
37.104334580 10020.0
37.115201020 9818.0
37.126067460 9905.0
37.136933900 9902.0
37.147800340 9916.0
37.158666780 10024.0
37.169533220 10056.0
37.180399660 10159.0
37.191266100 10150.0
37.202132540 10301.0
37.212998980 10438.0
37.223865420 10590.0
37.234731860 10706.0
37.245598300 11066.0
37.256464740 11023.0
37.267331180 11716.0
37.278197620 11639.0
37.289064060 12143.0
37.299930500 11918.0
37.310796940 12062.0
37.321663380 12385.0
37.332529820 12307.0
37.343396260 12509.0
37.354262700 12313.0
37.365129140 12163.0
37.375995580 11986.0
37.386862020 11623.0
37.397728460 11990.0
37.408594900 11402.0
37.419461340 11449.0
37.430327780 11306.0
37.441194220 11405.0
37.452060660 11302.0
37.462927100 11233.0
37.473793540 11010.0
37.484659980 10886.0
37.495526420 10808.0
37.506392860 11061.0
37.517259300 10749.0
37.528125740 10913.0
37.538992180 10995.0
37.549858620 11099.0
37.560725060 11160.0
37.571591500 11354.0
37.582457940 11430.0
37.593324380 11457.0
37.604190820 11656.0
37.615057260 11684.0
37.625923700 11844.0
37.636790140 12504.0
37.647656580 12754.0
37.658523020 13018.0
37.669389460 13312.0
37.680255900 13506.0
37.691122340 14164.0
37.701988780 14653.0
37.712855220 15523.0
37.723721660 15909.0
37.734588100 17090.0
37.745454540 17860.0
37.756320980 19379.0
37.767187420 20622.0
37.778053860 22066.0
37.788920300 23656.0
37.799786740 25392.0
37.810653180 27640.0
37.821519620 29892.0
37.832386060 32181.0
37.843252500 34247.0
37.854118940 36263.0
37.864985380 38125.0
37.875851820 39790.0
37.886718260 40999.0
37.897584700 42140.0
37.908451140 43083.0
37.919317580 43328.0
37.930184020 43288.0
37.941050460 43162.0
37.951916900 42819.0
37.962783340 41965.0
37.973649780 40409.0
37.984516220 39149.0
37.995382660 37673.0
38.006249100 36216.0
38.017115540 34276.0
38.027981980 32853.0
38.038848420 31187.0
38.049714860 29201.0
38.060581300 27532.0
38.071447740 26037.0
38.082314180 24510.0
38.093180620 23116.0
38.104047060 21894.0
38.114913500 20786.0
38.125779940 19718.0
38.136646380 18474.0
38.147512820 17590.0
38.158379260 16896.0
38.169245700 15921.0
38.180112140 15711.0
38.190978580 14833.0
38.201845020 14536.0
38.212711460 13883.0
38.223577900 13482.0
38.234444340 13097.0
38.245310780 12748.0
38.256177220 12452.0
38.267043660 11962.0
38.277910100 11801.0
38.288776540 11689.0
38.299642980 11380.0
38.310509420 11257.0
38.321375860 10849.0
38.332242300 10771.0
38.343108740 10438.0
38.353975180 10496.0
38.364841620 10141.0
38.375708060 10158.0
38.386574500 9894.0
38.397440940 9863.0
38.408307380 9884.0
38.419173820 9923.0
38.430040260 9577.0
38.440906700 9711.0
38.451773140 9471.0
38.462639580 9428.0
38.473506020 9410.0
38.484372460 9127.0
38.495238900 9211.0
38.506105340 9372.0
38.516971780 9288.0
38.527838220 9154.0
38.538704660 9164.0
38.549571100 9239.0
38.560437540 9009.0
38.571303980 9121.0
38.582170420 9131.0
38.593036860 9174.0
38.603903300 9006.0
38.614769740 9043.0
38.625636180 8912.0
38.636502620 8820.0
38.647369060 8946.0
38.658235500 8836.0
38.669101940 8920.0
38.679968380 8884.0
38.690834820 8834.0
38.701701260 9055.0
38.712567700 8843.0
38.723434140 8851.0
38.734300580 8911.0
38.745167020 8816.0
38.756033460 8955.0
38.766899900 8887.0
38.777766340 8804.0
38.788632780 8974.0
38.799499220 8882.0
38.810365660 8725.0
38.821232100 8764.0
38.832098540 8916.0
38.842964980 8922.0
38.853831420 8971.0
38.864697860 9009.0
38.875564300 9215.0
38.886430740 8861.0
38.897297180 8885.0
38.908163620 9189.0
38.919030060 9136.0
38.929896500 9220.0
38.940762940 9222.0
38.951629380 9330.0
38.962495820 9161.0
38.973362260 9167.0
38.984228700 9120.0
38.995095140 9225.0
39.005961580 9198.0
39.016828020 9369.0
39.027694460 9140.0
39.038560900 9104.0
39.049427340 9313.0
39.060293780 9064.0
39.071160220 9117.0
39.082026660 8890.0
39.092893100 9076.0
39.103759540 8915.0
39.114625980 8894.0
39.125492420 8890.0
39.136358860 8828.0
39.147225300 8853.0
39.158091740 9044.0
39.168958180 8771.0
39.179824620 8783.0
39.190691060 8624.0
39.201557500 8888.0
39.212423940 8633.0
39.223290380 8832.0
39.234156820 8833.0
39.245023260 8746.0
39.255889700 8700.0
39.266756140 8612.0
39.277622580 8521.0
39.288489020 8652.0
39.299355460 8511.0
39.310221900 8502.0
39.321088340 8507.0
39.331954780 8327.0
39.342821220 8591.0
39.353687660 8590.0
39.364554100 8478.0
39.375420540 8560.0
39.386286980 8496.0
39.397153420 8646.0
39.408019860 8450.0
39.418886300 8559.0
39.429752740 8466.0
39.440619180 8603.0
39.451485620 8336.0
39.462352060 8232.0
39.473218500 8425.0
39.484084940 8455.0
39.494951380 8452.0
39.505817820 8537.0
39.516684260 8525.0
39.527550700 8405.0
39.538417140 8293.0
39.549283580 8415.0
39.560150020 8469.0
39.571016460 8528.0
39.581882900 8501.0
39.592749340 8415.0
39.603615780 8573.0
39.614482220 8355.0
39.625348660 8586.0
39.636215100 8430.0
39.647081540 8535.0
39.657947980 8550.0
39.668814420 8704.0
39.679680860 8731.0
39.690547300 8776.0
39.701413740 9001.0
39.712280180 8934.0
39.723146620 9285.0
39.734013060 9027.0
39.744879500 9266.0
39.755745940 9391.0
39.766612380 9554.0
39.777478820 9878.0
39.788345260 10074.0
39.799211700 10327.0
39.810078140 10498.0
39.820944580 10876.0
39.831811020 10948.0
39.842677460 11332.0
39.853543900 11578.0
39.864410340 11630.0
39.875276780 11857.0
39.886143220 11696.0
39.897009660 11690.0
39.907876100 11482.0
39.918742540 11146.0
39.929608980 10949.0
39.940475420 10835.0
39.951341860 10619.0
39.962208300 10537.0
39.973074740 10258.0
39.983941180 9857.0
39.994807620 9777.0
