10.003433220 21909.0
10.014299660 21912.0
10.025166100 21842.0
10.036032540 21939.0
10.046898980 21951.0
10.057765420 21953.0
10.068631860 21891.0
10.079498300 21890.0
10.090364740 22018.0
10.101231180 21647.0
10.112097620 21881.0
10.122964060 21847.0
10.133830500 21611.0
10.144696940 21733.0
10.155563380 21827.0
10.166429820 21670.0
10.177296260 21696.0
10.188162700 21712.0
10.199029140 21953.0
10.209895580 21671.0
10.220762020 21671.0
10.231628460 21880.0
10.242494900 21417.0
10.253361340 21595.0
10.264227780 21629.0
10.275094220 21603.0
10.285960660 21400.0
10.296827100 21465.0
10.307693540 21612.0
10.318559980 21604.0
10.329426420 21612.0
10.340292860 21886.0
10.351159300 21604.0
10.362025740 21503.0
10.372892180 21918.0
10.383758620 21333.0
10.394625060 21455.0
10.405491500 21789.0
10.416357940 21480.0
10.427224380 21716.0
10.438090820 21550.0
10.448957260 21456.0
10.459823700 21206.0
10.470690140 21368.0
10.481556580 21613.0
10.492423020 21709.0
10.503289460 21524.0
10.514155900 21383.0
10.525022340 21352.0
10.535888780 21393.0
10.546755220 21433.0
10.557621660 21026.0
10.568488100 21433.0
10.579354540 21605.0
10.590220980 21366.0
10.601087420 21323.0
10.611953860 21359.0
10.622820300 21343.0
10.633686740 21534.0
10.644553180 21164.0
10.655419620 21260.0
10.666286060 21422.0
10.677152500 21291.0
10.688018940 21340.0
10.698885380 21408.0
10.709751820 21420.0
10.720618260 21345.0
10.731484700 21453.0
10.742351140 21295.0
10.753217580 21200.0
10.764084020 21438.0
10.774950460 21266.0
10.785816900 21346.0
10.796683340 21301.0
10.807549780 21298.0
10.818416220 21312.0
10.829282660 21154.0
10.840149100 21121.0
10.851015540 21307.0
10.861881980 21028.0
10.872748420 21463.0
10.883614860 21254.0
10.894481300 21253.0
10.905347740 21350.0
10.916214180 21187.0
10.927080620 21572.0
10.937947060 21339.0
10.948813500 21292.0
10.959679940 21432.0
10.970546380 20913.0
10.981412820 21535.0
10.992279260 21681.0
11.003145700 21291.0
11.014012140 21468.0
11.024878580 21243.0
11.035745020 21386.0
11.046611460 21432.0
11.057477900 21285.0
11.068344340 21150.0
11.079210780 21198.0
11.090077220 21658.0
11.100943660 21590.0
11.111810100 21608.0
11.122676540 21744.0
11.133542980 21700.0
11.144409420 21802.0
11.155275860 21963.0
11.166142300 22157.0
11.177008740 22273.0
11.187875180 21973.0
11.198741620 22482.0
11.209608060 22736.0
11.220474500 22617.0
11.231340940 22763.0
11.242207380 22619.0
11.253073820 23167.0
11.263940260 23096.0
11.274806700 23414.0
11.285673140 23710.0
11.296539580 23624.0
11.307406020 23966.0
11.318272460 24082.0
11.329138900 24389.0
11.340005340 24265.0
11.350871780 24516.0
11.361738220 24263.0
11.372604660 24056.0
11.383471100 23690.0
11.394337540 23351.0
11.405203980 23219.0
11.416070420 22664.0
11.426936860 22589.0
11.437803300 22212.0
11.448669740 21694.0
11.459536180 21478.0
11.470402620 20978.0
11.481269060 21296.0
11.492135500 21059.0
11.503001940 21283.0
11.513868380 20960.0
11.524734820 20925.0
11.535601260 20666.0
11.546467700 20676.0
11.557334140 20443.0
11.568200580 20791.0
11.579067020 20894.0
11.589933460 20681.0
11.600799900 20659.0
11.611666340 20764.0
11.622532780 20261.0
11.633399220 20749.0
11.644265660 20511.0
11.655132100 20855.0
11.665998540 20796.0
11.676864980 20640.0
11.687731420 20768.0
11.698597860 20735.0
11.709464300 20356.0
11.720330740 20724.0
11.731197180 20449.0
11.742063620 20204.0
11.752930060 20287.0
11.763796500 20381.0
11.774662940 20224.0
11.785529380 20680.0
11.796395820 20441.0
11.807262260 20201.0
11.818128700 20416.0
11.828995140 20355.0
11.839861580 20138.0
11.850728020 20408.0
11.861594460 20423.0
11.872460900 20640.0
11.883327340 20631.0
11.894193780 20447.0
11.905060220 20341.0
11.915926660 20440.0
11.926793100 20318.0
11.937659540 20488.0
11.948525980 20082.0
11.959392420 20378.0
11.970258860 20510.0
11.981125300 20083.0
11.991991740 20350.0
12.002858180 20307.0
12.013724620 20043.0
12.024591060 20544.0
12.035457500 20231.0
12.046323940 20550.0
12.057190380 19934.0
12.068056820 20401.0
12.078923260 19921.0
12.089789700 20197.0
12.100656140 20416.0
12.111522580 20350.0
12.122389020 20051.0
12.133255460 20065.0
12.144121900 19854.0
12.154988340 20291.0
12.165854780 19962.0
12.176721220 20205.0
12.187587660 20010.0
12.198454100 20200.0
12.209320540 19993.0
12.220186980 20464.0
12.231053420 20260.0
12.241919860 20219.0
12.252786300 20070.0
12.263652740 19978.0
12.274519180 20395.0
12.285385620 20141.0
12.296252060 20314.0
12.307118500 20031.0
12.317984940 20355.0
12.328851380 20013.0
12.339717820 20053.0
12.350584260 20158.0
12.361450700 20157.0
12.372317140 19996.0
12.383183580 19992.0
12.394050020 20031.0
12.404916460 19889.0
12.415782900 20064.0
12.426649340 19682.0
12.437515780 20019.0
12.448382220 19991.0
12.459248660 19834.0
12.470115100 19963.0
12.480981540 19834.0
12.491847980 19818.0
12.502714420 20106.0
12.513580860 19760.0
12.524447300 19836.0
12.535313740 20018.0
12.546180180 19873.0
12.557046620 19830.0
12.567913060 19948.0
12.578779500 19733.0
12.589645940 19853.0
12.600512380 19849.0
12.611378820 19896.0
12.622245260 20003.0
12.633111700 19864.0
12.643978140 19944.0
12.654844580 19818.0
12.665711020 19664.0
12.676577460 19841.0
12.687443900 19858.0
12.698310340 19530.0
12.709176780 19718.0
12.720043220 19805.0
12.730909660 19906.0
12.741776100 19830.0
12.752642540 19946.0
12.763508980 19445.0
12.774375420 19617.0
12.785241860 19705.0
12.796108300 19459.0
12.806974740 19887.0
12.817841180 19444.0
12.828707620 19873.0
12.839574060 19688.0
12.850440500 19449.0
12.861306940 19569.0
12.872173380 19416.0
12.883039820 19709.0
12.893906260 19512.0
12.904772700 19328.0
12.915639140 19639.0
12.926505580 19523.0
12.937372020 19746.0
12.948238460 19410.0
12.959104900 19552.0
12.969971340 19332.0
12.980837780 19510.0
12.991704220 19346.0
13.002570660 19460.0
13.013437100 19606.0
13.024303540 19611.0
13.035169980 19614.0
13.046036420 19472.0
13.056902860 19233.0
13.067769300 19590.0
13.078635740 19436.0
13.089502180 19314.0
13.100368620 19534.0
13.111235060 19580.0
13.122101500 19509.0
13.132967940 19327.0
13.143834380 19373.0
13.154700820 19427.0
13.165567260 19461.0
13.176433700 19514.0
13.187300140 19133.0
13.198166580 19618.0
13.209033020 19211.0
13.219899460 19120.0
13.230765900 19355.0
13.241632340 19424.0
13.252498780 19372.0
13.263365220 19539.0
13.274231660 19310.0
13.285098100 19388.0
13.295964540 19128.0
13.306830980 19301.0
13.317697420 19406.0
13.328563860 19511.0
13.339430300 19399.0
13.350296740 19221.0
13.361163180 19122.0
13.372029620 19160.0
13.382896060 19142.0
13.393762500 19504.0
13.404628940 19026.0
13.415495380 19397.0
13.426361820 19283.0
13.437228260 19243.0
13.448094700 19173.0
13.458961140 19232.0
13.469827580 19203.0
13.480694020 19162.0
13.491560460 19310.0
13.502426900 19056.0
13.513293340 19359.0
13.524159780 19305.0
13.535026220 19126.0
13.545892660 19366.0
13.556759100 19071.0
13.567625540 18956.0
13.578491980 19099.0
13.589358420 18995.0
13.600224860 18910.0
13.611091300 18900.0
13.621957740 19029.0
13.632824180 19011.0
13.643690620 19119.0
13.654557060 19121.0
13.665423500 19130.0
13.676289940 18933.0
13.687156380 19190.0
13.698022820 19073.0
13.708889260 18921.0
13.719755700 19243.0
13.730622140 18848.0
13.741488580 19141.0
13.752355020 18742.0
13.763221460 19239.0
13.774087900 19029.0
13.784954340 19213.0
13.795820780 18803.0
13.806687220 18929.0
13.817553660 18699.0
13.828420100 19039.0
13.839286540 19072.0
13.850152980 18847.0
13.861019420 18795.0
13.871885860 18964.0
13.882752300 18639.0
13.893618740 19143.0
13.904485180 18954.0
13.915351620 18943.0
13.926218060 18632.0
13.937084500 18862.0
13.947950940 18742.0
13.958817380 18906.0
13.969683820 18867.0
13.980550260 18763.0
13.991416700 19111.0
14.002283140 18796.0
14.013149580 18626.0
14.024016020 18871.0
14.034882460 19001.0
14.045748900 18759.0
14.056615340 18712.0
14.067481780 18888.0
14.078348220 18809.0
14.089214660 18706.0
14.100081100 18511.0
14.110947540 18715.0
14.121813980 18757.0
14.132680420 18911.0
14.143546860 18649.0
14.154413300 18977.0
14.165279740 18563.0
14.176146180 18668.0
14.187012620 18689.0
14.197879060 18788.0
14.208745500 18561.0
14.219611940 18923.0
14.230478380 18527.0
14.241344820 19050.0
14.252211260 18820.0
14.263077700 18789.0
14.273944140 18782.0
14.284810580 18770.0
14.295677020 18832.0
14.306543460 18671.0
14.317409900 18597.0
14.328276340 18700.0
14.339142780 18596.0
14.350009220 18899.0
14.360875660 18731.0
14.371742100 18834.0
14.382608540 18567.0
14.393474980 18826.0
14.404341420 18514.0
14.415207860 18500.0
14.426074300 18546.0
14.436940740 18711.0
14.447807180 18476.0
14.458673620 18612.0
14.469540060 18793.0
14.480406500 18551.0
14.491272940 18604.0
14.502139380 18660.0
14.513005820 18583.0
14.523872260 18534.0
14.534738700 18520.0
14.545605140 18585.0
14.556471580 18492.0
14.567338020 18835.0
14.578204460 18701.0
14.589070900 18455.0
14.599937340 18271.0
14.610803780 18537.0
14.621670220 18510.0
14.632536660 18464.0
14.643403100 18325.0
14.654269540 18436.0
14.665135980 18505.0
14.676002420 18510.0
14.686868860 18175.0
14.697735300 18512.0
14.708601740 18392.0
14.719468180 18617.0
14.730334620 18616.0
14.741201060 18269.0
14.752067500 18275.0
14.762933940 18476.0
14.773800380 18327.0
14.784666820 18609.0
14.795533260 18422.0
14.806399700 18329.0
14.817266140 18529.0
14.828132580 18415.0
14.838999020 18379.0
14.849865460 18560.0
14.860731900 18337.0
14.871598340 18314.0
14.882464780 18020.0
14.893331220 18388.0
14.904197660 18225.0
14.915064100 18300.0
14.925930540 18309.0
14.936796980 17963.0
14.947663420 18415.0
14.958529860 18336.0
14.969396300 18379.0
14.980262740 18280.0
14.991129180 17853.0
15.001995620 18385.0
15.012862060 18001.0
15.023728500 18534.0
15.034594940 17939.0
15.045461380 18384.0
15.056327820 18151.0
15.067194260 18006.0
15.078060700 18042.0
15.088927140 18179.0
15.099793580 17866.0
15.110660020 18433.0
15.121526460 17971.0
15.132392900 18343.0
15.143259340 18261.0
15.154125780 18207.0
15.164992220 18015.0
15.175858660 18052.0
15.186725100 17829.0
15.197591540 18425.0
15.208457980 17958.0
15.219324420 18253.0
15.230190860 18398.0
15.241057300 18122.0
15.251923740 18036.0
15.262790180 18092.0
15.273656620 18153.0
15.284523060 18141.0
15.295389500 18069.0
15.306255940 18112.0
15.317122380 18053.0
15.327988820 18427.0
15.338855260 18049.0
15.349721700 18123.0
15.360588140 18198.0
15.371454580 18211.0
15.382321020 17985.0
15.393187460 18266.0
15.404053900 18239.0
15.414920340 18207.0
15.425786780 17971.0
15.436653220 18406.0
15.447519660 18490.0
15.458386100 18616.0
15.469252540 18283.0
15.480118980 18496.0
15.490985420 18251.0
15.501851860 18547.0
15.512718300 18363.0
15.523584740 18622.0
15.534451180 18707.0
15.545317620 18611.0
15.556184060 18619.0
15.567050500 18826.0
15.577916940 18783.0
15.588783380 18969.0
15.599649820 19007.0
15.610516260 19137.0
15.621382700 19201.0
15.632249140 19317.0
15.643115580 19124.0
15.653982020 19453.0
15.664848460 19577.0
15.675714900 19792.0
15.686581340 19934.0
15.697447780 20418.0
15.708314220 20328.0
15.719180660 21171.0
15.730047100 21428.0
15.740913540 21682.0
15.751779980 22154.0
15.762646420 22748.0
15.773512860 23303.0
15.784379300 24213.0
15.795245740 24832.0
15.806112180 25846.0
15.816978620 26601.0
15.827845060 27876.0
15.838711500 28838.0
15.849577940 30127.0
15.860444380 31614.0
15.871310820 32353.0
15.882177260 33533.0
15.893043700 34437.0
15.903910140 35253.0
15.914776580 35382.0
15.925643020 36014.0
15.936509460 35470.0
15.947375900 35273.0
15.958242340 34327.0
15.969108780 33292.0
15.979975220 31366.0
15.990841660 29828.0
16.001708100 28656.0
16.012574540 27302.0
16.023440980 26228.0
16.034307420 24640.0
16.045173860 23533.0
16.056040300 22929.0
16.066906740 22267.0
16.077773180 21591.0
16.088639620 20898.0
16.099506060 20332.0
16.110372500 20208.0
16.121238940 19601.0
16.132105380 19500.0
16.142971820 18899.0
16.153838260 18836.0
16.164704700 18536.0
16.175571140 18436.0
16.186437580 17997.0
16.197304020 18184.0
16.208170460 17998.0
16.219036900 18151.0
16.229903340 17769.0
16.240769780 18136.0
16.251636220 17747.0
16.262502660 17650.0
16.273369100 17691.0
16.284235540 17708.0
16.295101980 17608.0
16.305968420 17906.0
16.316834860 17836.0
16.327701300 17622.0
16.338567740 17712.0
16.349434180 17618.0
16.360300620 17904.0
16.371167060 17664.0
16.382033500 17392.0
16.392899940 17771.0
16.403766380 17642.0
16.414632820 17532.0
16.425499260 17514.0
16.436365700 17334.0
16.447232140 17662.0
16.458098580 17495.0
16.468965020 17599.0
16.479831460 17685.0
16.490697900 17694.0
16.501564340 17493.0
16.512430780 17520.0
16.523297220 17494.0
16.534163660 17343.0
16.545030100 17685.0
16.555896540 17367.0
16.566762980 17456.0
16.577629420 17363.0
16.588495860 17324.0
16.599362300 17216.0
16.610228740 17441.0
16.621095180 17451.0
16.631961620 17267.0
16.642828060 17434.0
16.653694500 17333.0
16.664560940 17540.0
16.675427380 17319.0
16.686293820 17337.0
16.697160260 17414.0
16.708026700 17379.0
16.718893140 17413.0
16.729759580 17380.0
16.740626020 17525.0
16.751492460 17238.0
16.762358900 17501.0
16.773225340 17291.0
16.784091780 17286.0
16.794958220 17302.0
16.805824660 17629.0
16.816691100 17287.0
16.827557540 17302.0
16.838423980 17037.0
16.849290420 17608.0
16.860156860 17282.0
16.871023300 17472.0
16.881889740 17254.0
16.892756180 17409.0
16.903622620 17185.0
16.914489060 17569.0
16.925355500 17241.0
16.936221940 17300.0
16.947088380 17033.0
16.957954820 17221.0
16.968821260 17036.0
16.979687700 17184.0
16.990554140 16865.0
17.001420580 17216.0
17.012287020 17231.0
17.023153460 17236.0
17.034019900 17266.0
17.044886340 17505.0
17.055752780 17189.0
17.066619220 17596.0
17.077485660 17281.0
17.088352100 17362.0
17.099218540 17235.0
17.110084980 17404.0
17.120951420 17223.0
17.131817860 17466.0
17.142684300 17133.0
17.153550740 17203.0
17.164417180 17329.0
17.175283620 17436.0
17.186150060 17220.0
17.197016500 17563.0
17.207882940 17309.0
17.218749380 17571.0
17.229615820 17364.0
17.240482260 17589.0
17.251348700 17291.0
17.262215140 17293.0
17.273081580 17143.0
17.283948020 17508.0
17.294814460 17228.0
17.305680900 17243.0
17.316547340 17445.0
17.327413780 17287.0
17.338280220 17644.0
17.349146660 17605.0
17.360013100 17326.0
17.370879540 17748.0
17.381745980 17337.0
17.392612420 17414.0
17.403478860 17754.0
17.414345300 17813.0
17.425211740 17582.0
17.436078180 17765.0
17.446944620 17615.0
17.457811060 18056.0
17.468677500 18013.0
17.479543940 18237.0
17.490410380 18295.0
17.501276820 18276.0
17.512143260 18439.0
17.523009700 18600.0
17.533876140 18427.0
17.544742580 18810.0
17.555609020 19036.0
17.566475460 19167.0
17.577341900 19800.0
17.588208340 19849.0
17.599074780 20347.0
17.609941220 20756.0
17.620807660 21359.0
17.631674100 21830.0
17.642540540 22556.0
17.653406980 23218.0
17.664273420 24043.0
17.675139860 25106.0
17.686006300 26193.0
17.696872740 27950.0
17.707739180 28811.0
17.718605620 30552.0
17.729472060 32159.0
17.740338500 34009.0
17.751204940 36155.0
17.762071380 38250.0
17.772937820 39759.0
17.783804260 41441.0
17.794670700 42815.0
17.805537140 43430.0
17.816403580 43213.0
17.827270020 43141.0
17.838136460 41541.0
17.849002900 40650.0
17.859869340 38164.0
17.870735780 36148.0
17.881602220 33451.0
17.892468660 30878.0
17.903335100 28084.0
17.914201540 26287.0
17.925067980 24337.0
17.935934420 22624.0
17.946800860 21496.0
17.957667300 20163.0
17.968533740 19827.0
17.979400180 18884.0
17.990266620 18571.0
18.001133060 18290.0
18.011999500 18150.0
18.022865940 17940.0
18.033732380 17826.0
18.044598820 17671.0
18.055465260 17851.0
18.066331700 17488.0
18.077198140 17291.0
18.088064580 17398.0
18.098931020 17337.0
18.109797460 17283.0
18.120663900 17183.0
18.131530340 17081.0
18.142396780 17163.0
18.153263220 17117.0
18.164129660 17271.0
18.174996100 17163.0
18.185862540 17230.0
18.196728980 17049.0
18.207595420 17028.0
18.218461860 17195.0
18.229328300 16958.0
18.240194740 17029.0
18.251061180 16836.0
18.261927620 16952.0
18.272794060 16889.0
18.283660500 17040.0
18.294526940 16681.0
18.305393380 16893.0
18.316259820 16719.0
18.327126260 16819.0
18.337992700 17093.0
18.348859140 16952.0
18.359725580 16960.0
18.370592020 16697.0
18.381458460 16745.0
18.392324900 16989.0
18.403191340 16721.0
18.414057780 16432.0
18.424924220 16722.0
18.435790660 16844.0
18.446657100 16782.0
18.457523540 16929.0
18.468389980 17002.0
18.479256420 16684.0
18.490122860 16744.0
18.500989300 16829.0
18.511855740 16829.0
18.522722180 16655.0
18.533588620 16561.0
18.544455060 16896.0
18.555321500 16828.0
18.566187940 16890.0
18.577054380 16508.0
18.587920820 16895.0
18.598787260 16635.0
18.609653700 16757.0
18.620520140 16764.0
18.631386580 16952.0
18.642253020 16759.0
18.653119460 16941.0
18.663985900 16720.0
18.674852340 16532.0
18.685718780 16690.0
18.696585220 16559.0
18.707451660 16673.0
18.718318100 16569.0
18.729184540 16735.0
18.740050980 16562.0
18.750917420 16406.0
18.761783860 16477.0
18.772650300 16576.0
18.783516740 16722.0
18.794383180 16604.0
18.805249620 16935.0
18.816116060 16552.0
18.826982500 16751.0
18.837848940 16390.0
18.848715380 16383.0
18.859581820 16646.0
18.870448260 16381.0
18.881314700 16703.0
18.892181140 16383.0
18.903047580 16572.0
18.913914020 16645.0
18.924780460 16517.0
18.935646900 16482.0
18.946513340 16622.0
18.957379780 16556.0
18.968246220 16584.0
18.979112660 16568.0
18.989979100 16466.0
19.000845540 16886.0
19.011711980 16416.0
19.022578420 16525.0
19.033444860 16489.0
19.044311300 16600.0
19.055177740 16432.0
19.066044180 16580.0
19.076910620 16588.0
19.087777060 16596.0
19.098643500 16668.0
19.109509940 16503.0
19.120376380 16653.0
19.131242820 16354.0
19.142109260 16460.0
19.152975700 16523.0
19.163842140 16806.0
19.174708580 16596.0
19.185575020 16581.0
19.196441460 16539.0
19.207307900 16544.0
19.218174340 16608.0
19.229040780 16450.0
19.239907220 16427.0
19.250773660 16491.0
19.261640100 16484.0
19.272506540 16329.0
19.283372980 16567.0
19.294239420 16625.0
19.305105860 16435.0
19.315972300 16604.0
19.326838740 16477.0
19.337705180 16717.0
19.348571620 16565.0
19.359438060 16521.0
19.370304500 16417.0
19.381170940 16302.0
19.392037380 16358.0
19.402903820 16362.0
19.413770260 16450.0
19.424636700 16231.0
19.435503140 16540.0
19.446369580 16500.0
19.457236020 16467.0
19.468102460 16392.0
19.478968900 16418.0
19.489835340 16461.0
19.500701780 16317.0
19.511568220 16391.0
19.522434660 16565.0
19.533301100 16625.0
19.544167540 16608.0
19.555033980 16333.0
19.565900420 16266.0
19.576766860 16578.0
19.587633300 16575.0
19.598499740 16374.0
19.609366180 16415.0
19.620232620 16580.0
19.631099060 16495.0
19.641965500 16352.0
19.652831940 16172.0
19.663698380 16377.0
19.674564820 16325.0
19.685431260 16266.0
19.696297700 16271.0
19.707164140 16383.0
19.718030580 16434.0
19.728897020 16638.0
19.739763460 16224.0
19.750629900 16350.0
19.761496340 16547.0
19.772362780 16498.0
19.783229220 16440.0
19.794095660 16201.0
19.804962100 16424.0
19.815828540 16350.0
19.826694980 16211.0
19.837561420 16226.0
19.848427860 16263.0
19.859294300 16126.0
19.870160740 16416.0
19.881027180 16236.0
19.891893620 16366.0
19.902760060 16248.0
19.913626500 15988.0
19.924492940 16340.0
19.935359380 16355.0
19.946225820 16210.0
19.957092260 16238.0
19.967958700 16357.0
19.978825140 16237.0
19.989691580 16351.0
20.000558020 16207.0
20.011424460 16296.0
20.022290900 16212.0
20.033157340 16259.0
20.044023780 16285.0
20.054890220 16282.0
20.065756660 16235.0
20.076623100 16185.0
20.087489540 16434.0
20.098355980 16349.0
20.109222420 16423.0
20.120088860 16502.0
20.130955300 16252.0
20.141821740 16285.0
20.152688180 16226.0
20.163554620 16502.0
20.174421060 16285.0
20.185287500 16270.0
20.196153940 16392.0
20.207020380 16201.0
20.217886820 16256.0
20.228753260 16202.0
20.239619700 16234.0
20.250486140 16349.0
20.261352580 16291.0
20.272219020 16485.0
20.283085460 16265.0
20.293951900 16402.0
20.304818340 16333.0
20.315684780 16390.0
20.326551220 16461.0
20.337417660 16232.0
20.348284100 16314.0
20.359150540 16170.0
20.370016980 16391.0
20.380883420 16291.0
20.391749860 16247.0
20.402616300 16285.0
20.413482740 16031.0
20.424349180 16337.0
20.435215620 16225.0
20.446082060 16479.0
20.456948500 16545.0
20.467814940 16094.0
20.478681380 16069.0
20.489547820 16352.0
20.500414260 16182.0
20.511280700 16246.0
20.522147140 16446.0
20.533013580 16007.0
20.543880020 16177.0
20.554746460 16199.0
20.565612900 16251.0
20.576479340 16213.0
20.587345780 16128.0
20.598212220 16265.0
20.609078660 16093.0
20.619945100 16178.0
20.630811540 16364.0
20.641677980 16153.0
20.652544420 16190.0
20.663410860 16126.0
20.674277300 16477.0
20.685143740 16358.0
20.696010180 16172.0
20.706876620 16307.0
20.717743060 16226.0
20.728609500 16198.0
20.739475940 16137.0
20.750342380 16087.0
20.761208820 16142.0
20.772075260 16165.0
20.782941700 16296.0
20.793808140 16375.0
20.804674580 16427.0
20.815541020 16115.0
20.826407460 16271.0
20.837273900 16131.0
20.848140340 16018.0
20.859006780 16329.0
20.869873220 16227.0
20.880739660 16106.0
20.891606100 16022.0
20.902472540 16208.0
20.913338980 16121.0
20.924205420 16312.0
20.935071860 16182.0
20.945938300 16106.0
20.956804740 16266.0
20.967671180 16105.0
20.978537620 16220.0
20.989404060 16000.0
21.000270500 16253.0
21.011136940 16210.0
21.022003380 16124.0
21.032869820 16063.0
21.043736260 16179.0
21.054602700 16095.0
21.065469140 16056.0
21.076335580 16210.0
21.087202020 16215.0
21.098068460 16346.0
21.108934900 16170.0
21.119801340 16329.0
21.130667780 16163.0
21.141534220 16152.0
21.152400660 16037.0
21.163267100 16238.0
21.174133540 16257.0
21.184999980 16150.0
21.195866420 16182.0
21.206732860 16155.0
21.217599300 16354.0
21.228465740 16081.0
21.239332180 16196.0
21.250198620 16100.0
21.261065060 16178.0
21.271931500 15991.0
21.282797940 16249.0
21.293664380 15960.0
21.304530820 16292.0
21.315397260 16288.0
21.326263700 15997.0
21.337130140 16283.0
21.347996580 16131.0
21.358863020 16112.0
21.369729460 16294.0
21.380595900 15991.0
21.391462340 16231.0
21.402328780 16228.0
21.413195220 16097.0
21.424061660 16117.0
21.434928100 16180.0
21.445794540 15999.0
21.456660980 16184.0
21.467527420 15954.0
21.478393860 15891.0
21.489260300 16097.0
21.500126740 16078.0
21.510993180 16431.0
21.521859620 16253.0
21.532726060 16113.0
21.543592500 16227.0
21.554458940 15898.0
21.565325380 16113.0
21.576191820 16012.0
21.587058260 16082.0
21.597924700 16173.0
21.608791140 16086.0
21.619657580 16226.0
21.630524020 16211.0
21.641390460 15974.0
21.652256900 16125.0
21.663123340 15814.0
21.673989780 15989.0
21.684856220 16148.0
21.695722660 15917.0
21.706589100 16401.0
21.717455540 16156.0
21.728321980 16343.0
21.739188420 16355.0
21.750054860 15972.0
21.760921300 16117.0
21.771787740 16139.0
21.782654180 16267.0
21.793520620 16123.0
21.804387060 16495.0
21.815253500 15926.0
21.826119940 16567.0
21.836986380 16398.0
21.847852820 16313.0
21.858719260 16331.0
21.869585700 16211.0
21.880452140 16056.0
21.891318580 16269.0
21.902185020 16269.0
21.913051460 16285.0
21.923917900 16166.0
21.934784340 15969.0
21.945650780 16242.0
21.956517220 16342.0
21.967383660 16092.0
21.978250100 16347.0
21.989116540 16068.0
21.999982980 16264.0
22.010849420 16309.0
22.021715860 16389.0
22.032582300 16303.0
22.043448740 16289.0
22.054315180 15927.0
22.065181620 16298.0
22.076048060 16381.0
22.086914500 16200.0
22.097780940 16320.0
22.108647380 16366.0
22.119513820 16312.0
22.130380260 15967.0
22.141246700 16293.0
22.152113140 16276.0
22.162979580 16535.0
22.173846020 16047.0
22.184712460 16108.0
22.195578900 15958.0
22.206445340 16291.0
22.217311780 15924.0
22.228178220 16353.0
22.239044660 16450.0
22.249911100 16509.0
22.260777540 16486.0
22.271643980 16322.0
22.282510420 16414.0
22.293376860 16489.0
22.304243300 16623.0
22.315109740 16661.0
22.325976180 16573.0
22.336842620 16849.0
22.347709060 17050.0
22.358575500 16841.0
22.369441940 16894.0
22.380308380 17110.0
22.391174820 17601.0
22.402041260 17436.0
22.412907700 18197.0
22.423774140 18420.0
22.434640580 18758.0
22.445507020 18818.0
22.456373460 19711.0
22.467239900 19928.0
22.478106340 20807.0
22.488972780 21354.0
22.499839220 22598.0
22.510705660 23082.0
22.521572100 24214.0
22.532438540 24791.0
22.543304980 25582.0
22.554171420 26333.0
22.565037860 26643.0
22.575904300 26612.0
22.586770740 26602.0
22.597637180 26439.0
22.608503620 25678.0
22.619370060 24537.0
22.630236500 23931.0
22.641102940 22903.0
22.651969380 21967.0
22.662835820 20741.0
22.673702260 19916.0
22.684568700 19265.0
22.695435140 18386.0
22.706301580 18015.0
22.717168020 17463.0
22.728034460 17300.0
22.738900900 16875.0
22.749767340 16732.0
22.760633780 16480.0
22.771500220 16636.0
22.782366660 16388.0
22.793233100 16348.0
22.804099540 16346.0
22.814965980 16254.0
22.825832420 16433.0
22.836698860 16181.0
22.847565300 16633.0
22.858431740 16216.0
22.869298180 15991.0
22.880164620 16301.0
22.891031060 16108.0
22.901897500 16305.0
22.912763940 16346.0
22.923630380 15985.0
22.934496820 15946.0
22.945363260 15946.0
22.956229700 15915.0
22.967096140 16242.0
22.977962580 16034.0
22.988829020 15967.0
22.999695460 15928.0
23.010561900 16096.0
23.021428340 15947.0
23.032294780 16122.0
23.043161220 16192.0
23.054027660 16068.0
23.064894100 16039.0
23.075760540 16016.0
23.086626980 15893.0
23.097493420 15974.0
23.108359860 15959.0
23.119226300 15866.0
23.130092740 15763.0
23.140959180 15995.0
23.151825620 16044.0
23.162692060 15850.0
23.173558500 16128.0
23.184424940 15831.0
23.195291380 16021.0
23.206157820 15916.0
23.217024260 16144.0
23.227890700 15953.0
23.238757140 15888.0
23.249623580 16097.0
23.260490020 15838.0
23.271356460 15852.0
23.282222900 15987.0
23.293089340 15762.0
23.303955780 15714.0
23.314822220 15768.0
23.325688660 15776.0
23.336555100 15907.0
23.347421540 15959.0
23.358287980 15817.0
23.369154420 16111.0
23.380020860 15888.0
23.390887300 15772.0
23.401753740 15926.0
23.412620180 15875.0
23.423486620 15857.0
23.434353060 15952.0
23.445219500 15877.0
23.456085940 15926.0
23.466952380 15723.0
23.477818820 15974.0
23.488685260 15942.0
23.499551700 15871.0
23.510418140 15791.0
23.521284580 15866.0
23.532151020 15727.0
23.543017460 15606.0
23.553883900 15906.0
23.564750340 15831.0
23.575616780 15767.0
23.586483220 15857.0
23.597349660 15606.0
23.608216100 15735.0
23.619082540 15773.0
23.629948980 15719.0
23.640815420 15823.0
23.651681860 15813.0
23.662548300 15773.0
23.673414740 15857.0
23.684281180 15901.0
23.695147620 15595.0
23.706014060 15797.0
23.716880500 15927.0
23.727746940 15848.0
23.738613380 15846.0
23.749479820 15706.0
23.760346260 15889.0
23.771212700 15743.0
23.782079140 15706.0
23.792945580 15878.0
23.803812020 15656.0
23.814678460 15621.0
23.825544900 15782.0
23.836411340 15801.0
23.847277780 15810.0
23.858144220 15968.0
23.869010660 15863.0
23.879877100 15903.0
23.890743540 15899.0
23.901609980 15621.0
23.912476420 15801.0
23.923342860 15557.0
23.934209300 15890.0
23.945075740 15837.0
23.955942180 15741.0
23.966808620 15727.0
23.977675060 15825.0
23.988541500 15725.0
23.999407940 15994.0
24.010274380 15807.0
24.021140820 15980.0
24.032007260 16061.0
24.042873700 15894.0
24.053740140 15947.0
24.064606580 15750.0
24.075473020 15666.0
24.086339460 15813.0
24.097205900 15945.0
24.108072340 15851.0
24.118938780 15951.0
24.129805220 15853.0
24.140671660 15776.0
24.151538100 15731.0
24.162404540 15825.0
24.173270980 15642.0
24.184137420 15981.0
24.195003860 15571.0
24.205870300 15878.0
24.216736740 15905.0
24.227603180 15794.0
24.238469620 15961.0
24.249336060 15794.0
24.260202500 15743.0
24.271068940 15752.0
24.281935380 15740.0
24.292801820 15891.0
24.303668260 16053.0
24.314534700 15918.0
24.325401140 15962.0
24.336267580 15901.0
24.347134020 15998.0
24.358000460 16323.0
24.368866900 15667.0
24.379733340 16199.0
24.390599780 15817.0
24.401466220 15976.0
24.412332660 16265.0
24.423199100 16009.0
24.434065540 16139.0
24.444931980 16089.0
24.455798420 16078.0
24.466664860 15837.0
24.477531300 16259.0
24.488397740 16141.0
24.499264180 16132.0
24.510130620 16377.0
24.520997060 16455.0
24.531863500 16583.0
24.542729940 16277.0
24.553596380 16323.0
24.564462820 16359.0
24.575329260 16513.0
24.586195700 16586.0
24.597062140 16803.0
24.607928580 16679.0
24.618795020 16924.0
24.629661460 16793.0
24.640527900 16923.0
24.651394340 17097.0
24.662260780 17371.0
24.673127220 17406.0
24.683993660 17321.0
24.694860100 17933.0
24.705726540 18043.0
24.716592980 17892.0
24.727459420 18192.0
24.738325860 18219.0
24.749192300 18464.0
24.760058740 18416.0
24.770925180 18368.0
24.781791620 18403.0
24.792658060 18229.0
24.803524500 18204.0
24.814390940 17802.0
24.825257380 18010.0
24.836123820 17835.0
24.846990260 17794.0
24.857856700 17698.0
24.868723140 17578.0
24.879589580 17870.0
24.890456020 17704.0
24.901322460 17939.0
24.912188900 18072.0
24.923055340 18042.0
24.933921780 18324.0
24.944788220 18715.0
24.955654660 19045.0
24.966521100 19379.0
24.977387540 19571.0
24.988253980 20594.0
24.999120420 20924.0
25.009986860 21518.0
25.020853300 22624.0
25.031719740 23140.0
25.042586180 24369.0
25.053452620 25591.0
25.064319060 26795.0
25.075185500 28901.0
25.086051940 30736.0
25.096918380 32543.0
25.107784820 35131.0
25.118651260 37196.0
25.129517700 39788.0
25.140384140 41716.0
25.151250580 43656.0
25.162117020 45453.0
25.172983460 46620.0
25.183849900 48002.0
25.194716340 48059.0
25.205582780 47531.0
25.216449220 47346.0
25.227315660 46974.0
25.238182100 45995.0
25.249048540 44959.0
25.259914980 44466.0
25.270781420 43976.0
25.281647860 44014.0
25.292514300 43285.0
25.303380740 42763.0
25.314247180 42233.0
25.325113620 41703.0
25.335980060 40501.0
25.346846500 39311.0
25.357712940 37718.0
25.368579380 35558.0
25.379445820 33444.0
25.390312260 31173.0
25.401178700 29216.0
25.412045140 27059.0
25.422911580 25112.0
25.433778020 23553.0
25.444644460 22302.0
25.455510900 20831.0
25.466377340 19822.0
25.477243780 18864.0
25.488110220 18496.0
25.498976660 17920.0
25.509843100 17651.0
25.520709540 17335.0
25.531575980 17074.0
25.542442420 16652.0
25.553308860 16809.0
25.564175300 16680.0
25.575041740 16507.0
25.585908180 16482.0
25.596774620 16514.0
25.607641060 16178.0
25.618507500 16298.0
25.629373940 16495.0
25.640240380 16614.0
25.651106820 16367.0
25.661973260 16202.0
25.672839700 16116.0
25.683706140 16282.0
25.694572580 16414.0
25.705439020 16424.0
25.716305460 16165.0
25.727171900 16161.0
25.738038340 16060.0
25.748904780 16340.0
25.759771220 16316.0
25.770637660 16139.0
25.781504100 16066.0
25.792370540 16288.0
25.803236980 16386.0
25.814103420 16452.0
25.824969860 16271.0
25.835836300 16385.0
25.846702740 16386.0
25.857569180 16378.0
25.868435620 16403.0
25.879302060 16548.0
25.890168500 16736.0
25.901034940 17033.0
25.911901380 17358.0
25.922767820 17254.0
25.933634260 17500.0
25.944500700 17712.0
25.955367140 17715.0
25.966233580 18114.0
25.977100020 18445.0
25.987966460 18520.0
25.998832900 18732.0
26.009699340 18687.0
26.020565780 18632.0
26.031432220 18526.0
26.042298660 18668.0
26.053165100 18429.0
26.064031540 18363.0
26.074897980 18028.0
26.085764420 17858.0
26.096630860 17659.0
26.107497300 17524.0
26.118363740 17404.0
26.129230180 16996.0
26.140096620 17051.0
26.150963060 16946.0
26.161829500 16918.0
26.172695940 16925.0
26.183562380 16941.0
26.194428820 17081.0
26.205295260 16988.0
26.216161700 16933.0
26.227028140 16839.0
26.237894580 16973.0
26.248761020 16991.0
26.259627460 17069.0
26.270493900 17048.0
26.281360340 17387.0
26.292226780 17474.0
26.303093220 17556.0
26.313959660 17548.0
26.324826100 17631.0
26.335692540 17541.0
26.346558980 17985.0
26.357425420 18124.0
26.368291860 18222.0
26.379158300 18381.0
26.390024740 18739.0
26.400891180 18836.0
26.411757620 18994.0
26.422624060 19650.0
26.433490500 19618.0
26.444356940 20003.0
26.455223380 20456.0
26.466089820 20690.0
26.476956260 21340.0
26.487822700 21803.0
26.498689140 22429.0
26.509555580 23357.0
26.520422020 23906.0
26.531288460 25071.0
26.542154900 26014.0
26.553021340 27008.0
26.563887780 28669.0
26.574754220 30145.0
26.585620660 31535.0
26.596487100 33681.0
26.607353540 35452.0
26.618219980 37572.0
26.629086420 39780.0
26.639952860 41777.0
26.650819300 44108.0
26.661685740 45882.0
26.672552180 47150.0
26.683418620 48946.0
26.694285060 50581.0
26.705151500 51190.0
26.716017940 50996.0
26.726884380 50812.0
26.737750820 50021.0
26.748617260 48877.0
26.759483700 48211.0
26.770350140 45619.0
26.781216580 43754.0
26.792083020 41641.0
26.802949460 39172.0
26.813815900 37216.0
26.824682340 34974.0
26.835548780 33348.0
26.846415220 31222.0
26.857281660 29788.0
26.868148100 28463.0
26.879014540 27067.0
26.889880980 26376.0
26.900747420 25222.0
26.911613860 24141.0
26.922480300 23632.0
26.933346740 22415.0
26.944213180 22239.0
26.955079620 21590.0
26.965946060 21397.0
26.976812500 20470.0
26.987678940 20350.0
26.998545380 19971.0
27.009411820 19584.0
27.020278260 19317.0
27.031144700 19278.0
27.042011140 18767.0
27.052877580 18884.0
27.063744020 18363.0
27.074610460 17979.0
27.085476900 17834.0
27.096343340 17583.0
27.107209780 17518.0
27.118076220 17569.0
27.128942660 16968.0
27.139809100 17258.0
27.150675540 17035.0
27.161541980 17068.0
27.172408420 16651.0
27.183274860 16564.0
27.194141300 16695.0
27.205007740 16580.0
27.215874180 16384.0
27.226740620 16227.0
27.237607060 16191.0
27.248473500 16288.0
27.259339940 16240.0
27.270206380 15799.0
27.281072820 15852.0
27.291939260 15974.0
27.302805700 15979.0
27.313672140 15926.0
27.324538580 15825.0
27.335405020 15576.0
27.346271460 15619.0
27.357137900 15681.0
27.368004340 15450.0
27.378870780 15596.0
27.389737220 15572.0
27.400603660 15254.0
27.411470100 15582.0
27.422336540 15320.0
27.433202980 15238.0
27.444069420 15180.0
27.454935860 15266.0
27.465802300 15648.0
27.476668740 15357.0
27.487535180 15487.0
27.498401620 15282.0
27.509268060 15372.0
27.520134500 15021.0
27.531000940 15448.0
27.541867380 15222.0
27.552733820 15013.0
27.563600260 15139.0
27.574466700 15235.0
27.585333140 15095.0
27.596199580 15287.0
27.607066020 14942.0
27.617932460 14950.0
27.628798900 15067.0
27.639665340 15145.0
27.650531780 14856.0
27.661398220 14971.0
27.672264660 14904.0
27.683131100 15163.0
27.693997540 14961.0
27.704863980 14927.0
27.715730420 14680.0
27.726596860 15100.0
27.737463300 14891.0
27.748329740 15220.0
27.759196180 15151.0
27.770062620 14992.0
27.780929060 15134.0
27.791795500 14953.0
27.802661940 14683.0
27.813528380 14699.0
27.824394820 14882.0
27.835261260 15038.0
27.846127700 14642.0
27.856994140 14912.0
27.867860580 14905.0
27.878727020 14790.0
27.889593460 14900.0
27.900459900 14637.0
27.911326340 14892.0
27.922192780 14817.0
27.933059220 14904.0
27.943925660 15169.0
27.954792100 14957.0
27.965658540 14732.0
27.976524980 14815.0
27.987391420 14732.0
27.998257860 14989.0
28.009124300 14831.0
28.019990740 14936.0
28.030857180 14867.0
28.041723620 14986.0
28.052590060 14974.0
28.063456500 14701.0
28.074322940 14997.0
28.085189380 14914.0
28.096055820 15200.0
28.106922260 14857.0
28.117788700 14833.0
28.128655140 15093.0
28.139521580 15064.0
28.150388020 15118.0
28.161254460 15161.0
28.172120900 15010.0
28.182987340 15281.0
28.193853780 15385.0
28.204720220 15166.0
28.215586660 15252.0
28.226453100 15200.0
28.237319540 15494.0
28.248185980 15610.0
28.259052420 15716.0
28.269918860 16118.0
28.280785300 16050.0
28.291651740 16328.0
28.302518180 16297.0
28.313384620 16317.0
28.324251060 16617.0
28.335117500 17199.0
28.345983940 16933.0
28.356850380 17124.0
28.367716820 17130.0
28.378583260 17362.0
28.389449700 17293.0
28.400316140 17243.0
28.411182580 17021.0
28.422049020 17098.0
28.432915460 16881.0
28.443781900 16702.0
28.454648340 16525.0
28.465514780 16630.0
28.476381220 16193.0
28.487247660 16523.0
28.498114100 16018.0
28.508980540 15824.0
28.519846980 16067.0
28.530713420 15950.0
28.541579860 15976.0
28.552446300 15662.0
28.563312740 15885.0
28.574179180 15822.0
28.585045620 16000.0
28.595912060 15967.0
28.606778500 16230.0
28.617644940 16379.0
28.628511380 16414.0
28.639377820 16452.0
28.650244260 16722.0
28.661110700 17179.0
28.671977140 17771.0
28.682843580 18236.0
28.693710020 18839.0
28.704576460 19490.0
28.715442900 20428.0
28.726309340 21091.0
28.737175780 22110.0
28.748042220 22763.0
28.758908660 23517.0
28.769775100 24262.0
28.780641540 24954.0
28.791507980 25715.0
28.802374420 25648.0
28.813240860 26130.0
28.824107300 25585.0
28.834973740 25600.0
28.845840180 25062.0
28.856706620 24586.0
28.867573060 24231.0
28.878439500 23485.0
28.889305940 22097.0
28.900172380 21575.0
28.911038820 20705.0
28.921905260 20041.0
28.932771700 19105.0
28.943638140 18257.0
28.954504580 17359.0
28.965371020 17200.0
28.976237460 16128.0
28.987103900 15737.0
28.997970340 15627.0
29.008836780 15213.0
29.019703220 15121.0
29.030569660 14707.0
29.041436100 14611.0
29.052302540 14464.0
29.063168980 14258.0
29.074035420 14580.0
29.084901860 14207.0
29.095768300 14437.0
29.106634740 14070.0
29.117501180 14239.0
29.128367620 14150.0
29.139234060 14159.0
29.150100500 14007.0
29.160966940 14342.0
29.171833380 14045.0
29.182699820 14292.0
29.193566260 14044.0
29.204432700 14070.0
29.215299140 14155.0
29.226165580 14018.0
29.237032020 13983.0
29.247898460 14316.0
29.258764900 14208.0
29.269631340 14598.0
29.280497780 14301.0
29.291364220 14730.0
29.302230660 14601.0
29.313097100 14579.0
29.323963540 14991.0
29.334829980 15348.0
29.345696420 15339.0
29.356562860 15712.0
29.367429300 16045.0
29.378295740 16739.0
29.389162180 17216.0
29.400028620 18120.0
29.410895060 18779.0
29.421761500 19896.0
29.432627940 21163.0
29.443494380 22426.0
29.454360820 23746.0
29.465227260 24912.0
29.476093700 25883.0
29.486960140 26959.0
29.497826580 27573.0
29.508693020 27641.0
29.519559460 27618.0
29.530425900 27634.0
29.541292340 26673.0
29.552158780 26389.0
29.563025220 24596.0
29.573891660 23614.0
29.584758100 22220.0
29.595624540 21011.0
29.606490980 19662.0
29.617357420 18921.0
29.628223860 17781.0
29.639090300 16890.0
29.649956740 16052.0
29.660823180 15486.0
29.671689620 14812.0
29.682556060 14542.0
29.693422500 14386.0
29.704288940 14168.0
29.715155380 14189.0
29.726021820 13955.0
29.736888260 13691.0
29.747754700 13717.0
29.758621140 13635.0
29.769487580 13662.0
29.780354020 13626.0
29.791220460 13761.0
29.802086900 13745.0
29.812953340 13613.0
29.823819780 13533.0
29.834686220 13569.0
29.845552660 13317.0
29.856419100 13649.0
29.867285540 13415.0
29.878151980 13470.0
29.889018420 13246.0
29.899884860 13421.0
29.910751300 13081.0
29.921617740 13391.0
29.932484180 13343.0
29.943350620 13383.0
29.954217060 13294.0
29.965083500 13336.0
29.975949940 13037.0
29.986816380 13088.0
29.997682820 13210.0
30.008549260 13166.0
30.019415700 13308.0
30.030282140 13349.0
30.041148580 13043.0
30.052015020 13046.0
30.062881460 13296.0
30.073747900 13201.0
30.084614340 13153.0
30.095480780 13345.0
30.106347220 13353.0
30.117213660 13266.0
30.128080100 12840.0
30.138946540 13268.0
30.149812980 13227.0
30.160679420 13218.0
30.171545860 13082.0
30.182412300 12943.0
30.193278740 12771.0
30.204145180 12921.0
30.215011620 13122.0
30.225878060 13081.0
30.236744500 13124.0
30.247610940 13364.0
30.258477380 12995.0
30.269343820 13218.0
30.280210260 13037.0
30.291076700 12839.0
30.301943140 13013.0
30.312809580 13110.0
30.323676020 12966.0
30.334542460 12973.0
30.345408900 12945.0
30.356275340 13024.0
30.367141780 12875.0
30.378008220 13009.0
30.388874660 12749.0
30.399741100 12817.0
30.410607540 12873.0
30.421473980 12982.0
30.432340420 12977.0
30.443206860 12990.0
30.454073300 12944.0
30.464939740 13071.0
30.475806180 12699.0
30.486672620 12953.0
30.497539060 12858.0
30.508405500 13068.0
30.519271940 12802.0
30.530138380 12902.0
30.541004820 12839.0
30.551871260 12859.0
30.562737700 12826.0
30.573604140 12737.0
30.584470580 12655.0
30.595337020 13001.0
30.606203460 12943.0
30.617069900 12823.0
30.627936340 12981.0
30.638802780 12719.0
30.649669220 12800.0
30.660535660 13002.0
30.671402100 12680.0
30.682268540 12812.0
30.693134980 12776.0
30.704001420 12475.0
30.714867860 13013.0
30.725734300 12591.0
30.736600740 12858.0
30.747467180 12582.0
30.758333620 12828.0
30.769200060 12842.0
30.780066500 12716.0
30.790932940 12961.0
30.801799380 12763.0
30.812665820 12826.0
30.823532260 12628.0
30.834398700 12721.0
30.845265140 12529.0
30.856131580 12747.0
30.866998020 12697.0
30.877864460 12676.0
30.888730900 12704.0
30.899597340 12718.0
30.910463780 12606.0
30.921330220 12413.0
30.932196660 12725.0
30.943063100 12515.0
30.953929540 12701.0
30.964795980 12773.0
30.975662420 12326.0
30.986528860 12671.0
30.997395300 12613.0
31.008261740 12920.0
31.019128180 12510.0
31.029994620 12643.0
31.040861060 12717.0
31.051727500 12580.0
31.062593940 12448.0
31.073460380 12528.0
31.084326820 12646.0
31.095193260 12615.0
31.106059700 12635.0
31.116926140 12538.0
31.127792580 12518.0
31.138659020 12394.0
31.149525460 12426.0
31.160391900 12619.0
31.171258340 12438.0
31.182124780 12717.0
31.192991220 12694.0
31.203857660 12562.0
31.214724100 12405.0
31.225590540 12733.0
31.236456980 12567.0
31.247323420 12513.0
31.258189860 12574.0
31.269056300 12621.0
31.279922740 12521.0
31.290789180 12900.0
31.301655620 12683.0
31.312522060 12841.0
31.323388500 12580.0
31.334254940 12725.0
31.345121380 12764.0
31.355987820 12909.0
31.366854260 12840.0
31.377720700 12841.0
31.388587140 12767.0
31.399453580 12780.0
31.410320020 12831.0
31.421186460 12748.0
31.432052900 12780.0
31.442919340 12817.0
31.453785780 12526.0
31.464652220 12741.0
31.475518660 12769.0
31.486385100 12868.0
31.497251540 12642.0
31.508117980 12876.0
31.518984420 12628.0
31.529850860 12827.0
31.540717300 12725.0
31.551583740 12751.0
31.562450180 12583.0
31.573316620 12558.0
31.584183060 12533.0
31.595049500 12735.0
31.605915940 12554.0
31.616782380 12795.0
31.627648820 12386.0
31.638515260 12538.0
31.649381700 12331.0
31.660248140 12561.0
31.671114580 12384.0
31.681981020 12461.0
31.692847460 12414.0
31.703713900 12521.0
31.714580340 12382.0
31.725446780 12469.0
31.736313220 12327.0
31.747179660 12156.0
31.758046100 12469.0
31.768912540 12370.0
31.779778980 12231.0
31.790645420 12542.0
31.801511860 12265.0
31.812378300 12599.0
31.823244740 12380.0
31.834111180 12228.0
31.844977620 12262.0
31.855844060 12521.0
31.866710500 12411.0
31.877576940 12495.0
31.888443380 12139.0
31.899309820 12386.0
31.910176260 12121.0
31.921042700 12290.0
31.931909140 12149.0
31.942775580 12351.0
31.953642020 12215.0
31.964508460 12310.0
31.975374900 12005.0
31.986241340 12504.0
31.997107780 12117.0
32.007974220 12207.0
32.018840660 12234.0
32.029707100 12243.0
32.040573540 12254.0
32.051439980 12210.0
32.062306420 12153.0
32.073172860 12267.0
32.084039300 12081.0
32.094905740 12256.0
32.105772180 12136.0
32.116638620 12366.0
32.127505060 12105.0
32.138371500 11952.0
32.149237940 12299.0
32.160104380 12192.0
32.170970820 12127.0
32.181837260 12218.0
32.192703700 12028.0
32.203570140 12363.0
32.214436580 12198.0
32.225303020 12155.0
32.236169460 12152.0
32.247035900 12310.0
32.257902340 12187.0
32.268768780 12162.0
32.279635220 12292.0
32.290501660 12247.0
32.301368100 12126.0
32.312234540 12285.0
32.323100980 12309.0
32.333967420 12139.0
32.344833860 12096.0
32.355700300 12450.0
32.366566740 12235.0
32.377433180 12306.0
32.388299620 12355.0
32.399166060 12573.0
32.410032500 12791.0
32.420898940 12868.0
32.431765380 12891.0
32.442631820 13225.0
32.453498260 13222.0
32.464364700 13405.0
32.475231140 13619.0
32.486097580 13942.0
32.496964020 14080.0
32.507830460 14590.0
32.518696900 15257.0
32.529563340 15772.0
32.540429780 16823.0
32.551296220 17849.0
32.562162660 19173.0
32.573029100 20248.0
32.583895540 21674.0
32.594761980 23482.0
32.605628420 24297.0
32.616494860 25819.0
32.627361300 26588.0
32.638227740 27284.0
32.649094180 27379.0
32.659960620 27337.0
32.670827060 26580.0
32.681693500 25387.0
32.692559940 24342.0
32.703426380 23396.0
32.714292820 22041.0
32.725159260 21329.0
32.736025700 19958.0
32.746892140 18763.0
32.757758580 17788.0
32.768625020 16450.0
32.779491460 15657.0
32.790357900 15052.0
32.801224340 14274.0
32.812090780 13788.0
32.822957220 13273.0
32.833823660 13033.0
32.844690100 12698.0
32.855556540 12559.0
32.866422980 12327.0
32.877289420 12743.0
32.888155860 12193.0
32.899022300 12394.0
32.909888740 12244.0
32.920755180 12265.0
32.931621620 12279.0
32.942488060 12087.0
32.953354500 11931.0
32.964220940 12167.0
32.975087380 12191.0
32.985953820 12377.0
32.996820260 12162.0
33.007686700 12120.0
33.018553140 12083.0
33.029419580 12297.0
33.040286020 12304.0
33.051152460 12323.0
33.062018900 12186.0
33.072885340 12512.0
33.083751780 12268.0
33.094618220 12440.0
33.105484660 12609.0
33.116351100 12460.0
33.127217540 12561.0
33.138083980 12660.0
33.148950420 12539.0
33.159816860 12609.0
33.170683300 12635.0
33.181549740 12555.0
33.192416180 12724.0
33.203282620 12417.0
33.214149060 12562.0
33.225015500 12552.0
33.235881940 12516.0
33.246748380 12301.0
33.257614820 12154.0
33.268481260 12266.0
33.279347700 12178.0
33.290214140 12121.0
33.301080580 12114.0
33.311947020 12234.0
33.322813460 12181.0
33.333679900 12342.0
33.344546340 12250.0
33.355412780 12236.0
33.366279220 12133.0
33.377145660 12267.0
33.388012100 12174.0
33.398878540 12422.0
33.409744980 12333.0
33.420611420 12400.0
33.431477860 12462.0
33.442344300 12461.0
33.453210740 12508.0
33.464077180 12588.0
33.474943620 12660.0
33.485810060 12699.0
33.496676500 13095.0
33.507542940 13249.0
33.518409380 13241.0
33.529275820 13509.0
33.540142260 13729.0
33.551008700 14115.0
33.561875140 14560.0
33.572741580 15107.0
33.583608020 15588.0
33.594474460 16029.0
33.605340900 17118.0
33.616207340 17776.0
33.627073780 18431.0
33.637940220 19232.0
33.648806660 20045.0
33.659673100 20597.0
33.670539540 20878.0
33.681405980 21327.0
33.692272420 21335.0
33.703138860 21439.0
33.714005300 21167.0
33.724871740 21213.0
33.735738180 21383.0
33.746604620 21632.0
33.757471060 21600.0
33.768337500 21881.0
33.779203940 22127.0
33.790070380 22790.0
33.800936820 23476.0
33.811803260 23834.0
33.822669700 24877.0
33.833536140 25710.0
33.844402580 25836.0
33.855269020 26832.0
33.866135460 27332.0
33.877001900 28155.0
33.887868340 28328.0
33.898734780 28565.0
33.909601220 28848.0
33.920467660 27996.0
33.931334100 27582.0
33.942200540 27157.0
33.953066980 26788.0
33.963933420 25706.0
33.974799860 24865.0
33.985666300 24301.0
33.996532740 23456.0
34.007399180 22405.0
34.018265620 21612.0
34.029132060 20601.0
34.039998500 19873.0
34.050864940 18877.0
34.061731380 18208.0
34.072597820 17774.0
34.083464260 17086.0
34.094330700 16541.0
34.105197140 15931.0
34.116063580 15790.0
34.126930020 15041.0
34.137796460 15009.0
34.148662900 14605.0
34.159529340 14357.0
34.170395780 13967.0
34.181262220 13872.0
34.192128660 13576.0
34.202995100 13459.0
34.213861540 13317.0
34.224727980 13105.0
34.235594420 12984.0
34.246460860 12865.0
34.257327300 12713.0
34.268193740 12492.0
34.279060180 12563.0
34.289926620 12362.0
34.300793060 12197.0
34.311659500 12307.0
34.322525940 12240.0
34.333392380 12030.0
34.344258820 12179.0
34.355125260 12051.0
34.365991700 12015.0
34.376858140 11824.0
34.387724580 12029.0
34.398591020 11750.0
34.409457460 11871.0
34.420323900 11821.0
34.431190340 11975.0
34.442056780 11861.0
34.452923220 12075.0
34.463789660 11999.0
34.474656100 12093.0
34.485522540 12145.0
34.496388980 12302.0
34.507255420 12196.0
34.518121860 12446.0
34.528988300 12582.0
34.539854740 13012.0
34.550721180 13135.0
34.561587620 13296.0
34.572454060 13829.0
34.583320500 13810.0
34.594186940 14339.0
34.605053380 14428.0
34.615919820 14465.0
34.626786260 14365.0
34.637652700 14515.0
34.648519140 14439.0
34.659385580 13892.0
34.670252020 13669.0
34.681118460 13742.0
34.691984900 13204.0
34.702851340 13313.0
34.713717780 12881.0
34.724584220 12596.0
34.735450660 12256.0
34.746317100 12389.0
34.757183540 11996.0
34.768049980 11544.0
34.778916420 11364.0
34.789782860 10973.0
34.800649300 11311.0
34.811515740 11013.0
34.822382180 11024.0
34.833248620 10785.0
34.844115060 10804.0
34.854981500 10821.0
34.865847940 10628.0
34.876714380 10623.0
34.887580820 10717.0
34.898447260 10807.0
34.909313700 10638.0
34.920180140 10801.0
34.931046580 10606.0
34.941913020 10725.0
34.952779460 10538.0
34.963645900 10572.0
34.974512340 10536.0
34.985378780 10589.0
34.996245220 10606.0
35.007111660 10846.0
35.017978100 10495.0
35.028844540 10588.0
35.039710980 10514.0
35.050577420 10575.0
35.061443860 10444.0
35.072310300 10632.0
35.083176740 10482.0
35.094043180 10462.0
35.104909620 10453.0
35.115776060 10449.0
35.126642500 10684.0
35.137508940 10585.0
35.148375380 10419.0
35.159241820 10432.0
35.170108260 10463.0
35.180974700 10629.0
35.191841140 10466.0
35.202707580 10416.0
35.213574020 10530.0
35.224440460 10271.0
35.235306900 10472.0
35.246173340 10439.0
35.257039780 10251.0
35.267906220 10220.0
35.278772660 10331.0
35.289639100 10395.0
35.300505540 10487.0
35.311371980 10296.0
35.322238420 10367.0
35.333104860 10557.0
35.343971300 10417.0
35.354837740 10392.0
35.365704180 10254.0
35.376570620 10480.0
35.387437060 10461.0
35.398303500 10349.0
35.409169940 10297.0
35.420036380 10316.0
35.430902820 10226.0
35.441769260 10436.0
35.452635700 10313.0
35.463502140 10409.0
35.474368580 10425.0
35.485235020 10465.0
35.496101460 10297.0
35.506967900 10205.0
35.517834340 10481.0
35.528700780 10573.0
35.539567220 10543.0
35.550433660 10595.0
35.561300100 10621.0
35.572166540 10406.0
35.583032980 10754.0
35.593899420 10630.0
35.604765860 11028.0
35.615632300 10797.0
35.626498740 11039.0
35.637365180 11400.0
35.648231620 11619.0
35.659098060 11664.0
35.669964500 12106.0
35.680830940 12614.0
35.691697380 12594.0
35.702563820 13591.0
35.713430260 14026.0
35.724296700 14662.0
35.735163140 15710.0
35.746029580 16752.0
35.756896020 17893.0
35.767762460 18990.0
35.778628900 20306.0
35.789495340 20910.0
35.800361780 21987.0
35.811228220 22625.0
35.822094660 22901.0
35.832961100 23207.0
35.843827540 22670.0
35.854693980 22543.0
35.865560420 21836.0
35.876426860 21209.0
35.887293300 20726.0
35.898159740 20147.0
35.909026180 19461.0
35.919892620 18718.0
35.930759060 18313.0
35.941625500 17858.0
35.952491940 17211.0
35.963358380 16510.0
35.974224820 16252.0
35.985091260 15382.0
35.995957700 14634.0
36.006824140 14416.0
36.017690580 13605.0
36.028557020 13367.0
36.039423460 12807.0
36.050289900 12809.0
36.061156340 12189.0
36.072022780 12146.0
36.082889220 11905.0
36.093755660 11515.0
36.104622100 11400.0
36.115488540 11116.0
36.126354980 10703.0
36.137221420 10544.0
36.148087860 10440.0
36.158954300 10295.0
36.169820740 10316.0
36.180687180 10221.0
36.191553620 10264.0
36.202420060 9955.0
36.213286500 10160.0
36.224152940 9976.0
36.235019380 9899.0
36.245885820 9822.0
36.256752260 9815.0
36.267618700 9821.0
36.278485140 9901.0
36.289351580 9746.0
36.300218020 9711.0
36.311084460 9822.0
36.321950900 9572.0
36.332817340 9591.0
36.343683780 9629.0
36.354550220 9716.0
36.365416660 9751.0
36.376283100 9740.0
36.387149540 9543.0
36.398015980 9678.0
36.408882420 9665.0
36.419748860 9785.0
36.430615300 9550.0
36.441481740 9768.0
36.452348180 9748.0
36.463214620 9771.0
36.474081060 9630.0
36.484947500 9495.0
36.495813940 9675.0
36.506680380 9517.0
36.517546820 9760.0
36.528413260 9741.0
36.539279700 9525.0
36.550146140 9511.0
36.561012580 9655.0
36.571879020 9743.0
36.582745460 9614.0
36.593611900 9692.0
36.604478340 9885.0
36.615344780 9708.0
36.626211220 9842.0
36.637077660 9805.0
36.647944100 9903.0
36.658810540 9863.0
36.669676980 9742.0
36.680543420 9968.0
36.691409860 9742.0
36.702276300 9853.0
36.713142740 9875.0
36.724009180 9665.0
36.734875620 9819.0
36.745742060 9728.0
36.756608500 9709.0
36.767474940 9764.0
36.778341380 9687.0
36.789207820 9741.0
36.800074260 9723.0
36.810940700 9645.0
36.821807140 9734.0
36.832673580 9670.0
36.843540020 9624.0
36.854406460 9796.0
36.865272900 9721.0
36.876139340 9767.0
36.887005780 9582.0
36.897872220 9595.0
36.908738660 9529.0
36.919605100 9485.0
36.930471540 9766.0
36.941337980 9793.0
36.952204420 9663.0
36.963070860 9795.0
36.973937300 9781.0
36.984803740 9711.0
36.995670180 9770.0
37.006536620 9678.0
37.017403060 9723.0
37.028269500 9632.0
37.039135940 9672.0
37.050002380 9714.0
37.060868820 9669.0
37.071735260 9750.0
37.082601700 9835.0
37.093468140 9844.0
37.104334580 9842.0
37.115201020 9856.0
37.126067460 9992.0
37.136933900 9932.0
37.147800340 9738.0
37.158666780 9825.0
37.169533220 9820.0
37.180399660 10134.0
37.191266100 10100.0
37.202132540 10216.0
37.212998980 10472.0
37.223865420 10533.0
37.234731860 11060.0
37.245598300 10948.0
37.256464740 11331.0
37.267331180 11698.0
37.278197620 11757.0
37.289064060 12141.0
37.299930500 12680.0
37.310796940 12515.0
37.321663380 12825.0
37.332529820 12818.0
37.343396260 12778.0
37.354262700 12998.0
37.365129140 12540.0
37.375995580 12724.0
37.386862020 12446.0
37.397728460 12307.0
37.408594900 12234.0
37.419461340 11824.0
37.430327780 11895.0
37.441194220 11452.0
37.452060660 11524.0
37.462927100 11370.0
37.473793540 11068.0
37.484659980 11086.0
37.495526420 10965.0
37.506392860 10530.0
37.517259300 10601.0
37.528125740 10707.0
37.538992180 10657.0
37.549858620 10797.0
37.560725060 10891.0
37.571591500 10905.0
37.582457940 11197.0
37.593324380 11271.0
37.604190820 11335.0
37.615057260 11471.0
37.625923700 11594.0
37.636790140 12006.0
37.647656580 12104.0
37.658523020 12394.0
37.669389460 12819.0
37.680255900 13081.0
37.691122340 13657.0
37.701988780 13919.0
37.712855220 14651.0
37.723721660 15191.0
37.734588100 16033.0
37.745454540 17226.0
37.756320980 17806.0
37.767187420 18888.0
37.778053860 20077.0
37.788920300 21829.0
37.799786740 23247.0
37.810653180 25510.0
37.821519620 27058.0
37.832386060 29061.0
37.843252500 31454.0
37.854118940 33310.0
37.864985380 34828.0
37.875851820 36907.0
37.886718260 38243.0
37.897584700 39866.0
37.908451140 40609.0
37.919317580 41336.0
37.930184020 41405.0
37.941050460 40709.0
37.951916900 40286.0
37.962783340 39826.0
37.973649780 39274.0
37.984516220 38078.0
37.995382660 36987.0
38.006249100 35463.0
38.017115540 33922.0
38.027981980 32512.0
38.038848420 30759.0
38.049714860 29276.0
38.060581300 27420.0
38.071447740 26279.0
38.082314180 24499.0
38.093180620 22915.0
38.104047060 21477.0
38.114913500 20643.0
38.125779940 19378.0
38.136646380 18357.0
38.147512820 17731.0
38.158379260 16625.0
38.169245700 16100.0
38.180112140 15345.0
38.190978580 14825.0
38.201845020 14447.0
38.212711460 13752.0
38.223577900 13407.0
38.234444340 13168.0
38.245310780 12540.0
38.256177220 12557.0
38.267043660 12105.0
38.277910100 11590.0
38.288776540 11159.0
38.299642980 11456.0
38.310509420 10917.0
38.321375860 10891.0
38.332242300 10743.0
38.343108740 10307.0
38.353975180 10353.0
38.364841620 10337.0
38.375708060 9866.0
38.386574500 9934.0
38.397440940 9673.0
38.408307380 9735.0
38.419173820 9611.0
38.430040260 9583.0
38.440906700 9803.0
38.451773140 9386.0
38.462639580 9470.0
38.473506020 9411.0
38.484372460 9258.0
38.495238900 9162.0
38.506105340 9193.0
38.516971780 9274.0
38.527838220 8892.0
38.538704660 9069.0
38.549571100 8966.0
38.560437540 8958.0
38.571303980 9100.0
38.582170420 8955.0
38.593036860 9027.0
38.603903300 8892.0
38.614769740 9010.0
38.625636180 8857.0
38.636502620 8732.0
38.647369060 8894.0
38.658235500 8868.0
38.669101940 8863.0
38.679968380 8999.0
38.690834820 8867.0
38.701701260 8952.0
38.712567700 8847.0
38.723434140 8901.0
38.734300580 8870.0
38.745167020 8689.0
38.756033460 8866.0
38.766899900 8800.0
38.777766340 8767.0
38.788632780 8730.0
38.799499220 8619.0
38.810365660 8826.0
38.821232100 8978.0
38.832098540 8828.0
38.842964980 8905.0
38.853831420 8885.0
38.864697860 8774.0
38.875564300 9002.0
38.886430740 8839.0
38.897297180 9130.0
38.908163620 9021.0
38.919030060 9034.0
38.929896500 9191.0
38.940762940 9068.0
38.951629380 9117.0
38.962495820 9106.0
38.973362260 9115.0
38.984228700 9168.0
38.995095140 9171.0
39.005961580 9046.0
39.016828020 9147.0
39.027694460 8899.0
39.038560900 9074.0
39.049427340 8933.0
39.060293780 8995.0
39.071160220 8806.0
39.082026660 9135.0
39.092893100 8886.0
39.103759540 8814.0
39.114625980 8976.0
39.125492420 8758.0
39.136358860 8790.0
39.147225300 8707.0
39.158091740 8794.0
39.168958180 8646.0
39.179824620 8630.0
39.190691060 8667.0
39.201557500 8408.0
39.212423940 8465.0
39.223290380 8732.0
39.234156820 8513.0
39.245023260 8677.0
39.255889700 8632.0
39.266756140 8604.0
39.277622580 8640.0
39.288489020 8549.0
39.299355460 8591.0
39.310221900 8404.0
39.321088340 8609.0
39.331954780 8382.0
39.342821220 8500.0
39.353687660 8383.0
39.364554100 8311.0
39.375420540 8308.0
39.386286980 8369.0
39.397153420 8188.0
39.408019860 8406.0
39.418886300 8369.0
39.429752740 8332.0
39.440619180 8502.0
39.451485620 8470.0
39.462352060 8537.0
39.473218500 8342.0
39.484084940 8423.0
39.494951380 8352.0
39.505817820 8411.0
39.516684260 8411.0
39.527550700 8517.0
39.538417140 8297.0
39.549283580 8410.0
39.560150020 8380.0
39.571016460 8318.0
39.581882900 8396.0
39.592749340 8333.0
39.603615780 8547.0
39.614482220 8358.0
39.625348660 8480.0
39.636215100 8525.0
39.647081540 8568.0
39.657947980 8603.0
39.668814420 8690.0
39.679680860 8652.0
39.690547300 8655.0
39.701413740 8777.0
39.712280180 8825.0
39.723146620 9080.0
39.734013060 9034.0
39.744879500 9233.0
39.755745940 9470.0
39.766612380 9564.0
39.777478820 9863.0
39.788345260 9952.0
39.799211700 10397.0
39.810078140 10731.0
39.820944580 11265.0
39.831811020 11422.0
39.842677460 12073.0
39.853543900 12121.0
39.864410340 12196.0
39.875276780 12388.0
39.886143220 12437.0
39.897009660 12373.0
39.907876100 12287.0
39.918742540 12024.0
39.929608980 11958.0
39.940475420 11568.0
39.951341860 11090.0
39.962208300 11102.0
39.973074740 10856.0
39.983941180 10562.0
39.994807620 10304.0
