10.003433220 21991.0
10.014299660 22158.0
10.025166100 21873.0
10.036032540 22019.0
10.046898980 21996.0
10.057765420 22227.0
10.068631860 21805.0
10.079498300 21699.0
10.090364740 22119.0
10.101231180 21832.0
10.112097620 21771.0
10.122964060 21754.0
10.133830500 21664.0
10.144696940 21642.0
10.155563380 21973.0
10.166429820 21872.0
10.177296260 21871.0
10.188162700 21992.0
10.199029140 21938.0
10.209895580 21788.0
10.220762020 21912.0
10.231628460 21847.0
10.242494900 21812.0
10.253361340 21937.0
10.264227780 21858.0
10.275094220 22004.0
10.285960660 21938.0
10.296827100 21948.0
10.307693540 21884.0
10.318559980 21757.0
10.329426420 21925.0
10.340292860 21689.0
10.351159300 21530.0
10.362025740 21922.0
10.372892180 21765.0
10.383758620 21783.0
10.394625060 21680.0
10.405491500 21736.0
10.416357940 21616.0
10.427224380 21748.0
10.438090820 21473.0
10.448957260 21672.0
10.459823700 21821.0
10.470690140 21539.0
10.481556580 21519.0
10.492423020 21675.0
10.503289460 21769.0
10.514155900 21635.0
10.525022340 21539.0
10.535888780 21778.0
10.546755220 21653.0
10.557621660 21815.0
10.568488100 21238.0
10.579354540 21816.0
10.590220980 21599.0
10.601087420 21458.0
10.611953860 21745.0
10.622820300 21707.0
10.633686740 21284.0
10.644553180 21528.0
10.655419620 21660.0
10.666286060 21630.0
10.677152500 21398.0
10.688018940 21746.0
10.698885380 21410.0
10.709751820 21747.0
10.720618260 21267.0
10.731484700 21361.0
10.742351140 21444.0
10.753217580 21168.0
10.764084020 21141.0
10.774950460 21754.0
10.785816900 21196.0
10.796683340 21375.0
10.807549780 21420.0
10.818416220 21370.0
10.829282660 21222.0
10.840149100 21150.0
10.851015540 21424.0
10.861881980 21379.0
10.872748420 21351.0
10.883614860 21551.0
10.894481300 21410.0
10.905347740 21457.0
10.916214180 21470.0
10.927080620 21496.0
10.937947060 21637.0
10.948813500 21654.0
10.959679940 21470.0
10.970546380 21574.0
10.981412820 21417.0
10.992279260 21472.0
11.003145700 21770.0
11.014012140 21679.0
11.024878580 21550.0
11.035745020 21862.0
11.046611460 21734.0
11.057477900 21726.0
11.068344340 21588.0
11.079210780 21778.0
11.090077220 21841.0
11.100943660 21722.0
11.111810100 22061.0
11.122676540 22272.0
11.133542980 22248.0
11.144409420 22898.0
11.155275860 22665.0
11.166142300 22710.0
11.177008740 22987.0
11.187875180 22825.0
11.198741620 23088.0
11.209608060 23207.0
11.220474500 23329.0
11.231340940 23590.0
11.242207380 23734.0
11.253073820 23702.0
11.263940260 23924.0
11.274806700 24010.0
11.285673140 23989.0
11.296539580 23707.0
11.307406020 23966.0
11.318272460 23743.0
11.329138900 23333.0
11.340005340 23210.0
11.350871780 23159.0
11.361738220 22511.0
11.372604660 22189.0
11.383471100 22601.0
11.394337540 21931.0
11.405203980 21786.0
11.416070420 21397.0
11.426936860 21280.0
11.437803300 21332.0
11.448669740 21013.0
11.459536180 20933.0
11.470402620 20932.0
11.481269060 20742.0
11.492135500 20988.0
11.503001940 21034.0
11.513868380 20823.0
11.524734820 21099.0
11.535601260 20740.0
11.546467700 20734.0
11.557334140 21119.0
11.568200580 20764.0
11.579067020 20669.0
11.589933460 21073.0
11.600799900 20679.0
11.611666340 20684.0
11.622532780 20666.0
11.633399220 20526.0
11.644265660 20762.0
11.655132100 20808.0
11.665998540 20679.0
11.676864980 20727.0
11.687731420 20439.0
11.698597860 20587.0
11.709464300 20507.0
11.720330740 20411.0
11.731197180 20782.0
11.742063620 20797.0
11.752930060 20686.0
11.763796500 20573.0
11.774662940 20453.0
11.785529380 20394.0
11.796395820 20473.0
11.807262260 20319.0
11.818128700 20427.0
11.828995140 20592.0
11.839861580 20433.0
11.850728020 20663.0
11.861594460 20446.0
11.872460900 20676.0
11.883327340 20294.0
11.894193780 20208.0
11.905060220 20306.0
11.915926660 20249.0
11.926793100 20340.0
11.937659540 20650.0
11.948525980 20504.0
11.959392420 20291.0
11.970258860 20268.0
11.981125300 20581.0
11.991991740 20560.0
12.002858180 20162.0
12.013724620 20349.0
12.024591060 20309.0
12.035457500 20225.0
12.046323940 20193.0
12.057190380 20413.0
12.068056820 20145.0
12.078923260 20590.0
12.089789700 20194.0
12.100656140 20454.0
12.111522580 20225.0
12.122389020 20333.0
12.133255460 19968.0
12.144121900 20481.0
12.154988340 20352.0
12.165854780 20293.0
12.176721220 20321.0
12.187587660 20087.0
12.198454100 20178.0
12.209320540 20155.0
12.220186980 20084.0
12.231053420 20227.0
12.241919860 20184.0
12.252786300 20063.0
12.263652740 20216.0
12.274519180 20352.0
12.285385620 20368.0
12.296252060 20084.0
12.307118500 20282.0
12.317984940 20049.0
12.328851380 20276.0
12.339717820 20107.0
12.350584260 20053.0
12.361450700 20391.0
12.372317140 20151.0
12.383183580 20267.0
12.394050020 20021.0
12.404916460 19993.0
12.415782900 20206.0
12.426649340 20150.0
12.437515780 20296.0
12.448382220 19997.0
12.459248660 19744.0
12.470115100 19868.0
12.480981540 19813.0
12.491847980 19995.0
12.502714420 20084.0
12.513580860 20009.0
12.524447300 20250.0
12.535313740 20102.0
12.546180180 19897.0
12.557046620 20083.0
12.567913060 20009.0
12.578779500 19951.0
12.589645940 20078.0
12.600512380 20193.0
12.611378820 20000.0
12.622245260 19878.0
12.633111700 19976.0
12.643978140 19872.0
12.654844580 19931.0
12.665711020 19834.0
12.676577460 19848.0
12.687443900 20190.0
12.698310340 20071.0
12.709176780 19784.0
12.720043220 19832.0
12.730909660 19790.0
12.741776100 19803.0
12.752642540 19736.0
12.763508980 19742.0
12.774375420 19833.0
12.785241860 19550.0
12.796108300 19831.0
12.806974740 19709.0
12.817841180 19746.0
12.828707620 19807.0
12.839574060 19983.0
12.850440500 19547.0
12.861306940 20064.0
12.872173380 19784.0
12.883039820 19789.0
12.893906260 19555.0
12.904772700 19900.0
12.915639140 19533.0
12.926505580 19501.0
12.937372020 19617.0
12.948238460 19694.0
12.959104900 19833.0
12.969971340 19562.0
12.980837780 19413.0
12.991704220 19664.0
13.002570660 19670.0
13.013437100 19544.0
13.024303540 19717.0
13.035169980 19564.0
13.046036420 19643.0
13.056902860 19572.0
13.067769300 19340.0
13.078635740 19862.0
13.089502180 19449.0
13.100368620 19823.0
13.111235060 19569.0
13.122101500 19426.0
13.132967940 19477.0
13.143834380 19597.0
13.154700820 19525.0
13.165567260 19662.0
13.176433700 19296.0
13.187300140 19368.0
13.198166580 19305.0
13.209033020 19624.0
13.219899460 19576.0
13.230765900 19474.0
13.241632340 19540.0
13.252498780 19465.0
13.263365220 19614.0
13.274231660 19310.0
13.285098100 19555.0
13.295964540 19332.0
13.306830980 19446.0
13.317697420 19401.0
13.328563860 19318.0
13.339430300 19476.0
13.350296740 19126.0
13.361163180 19338.0
13.372029620 19576.0
13.382896060 19573.0
13.393762500 19445.0
13.404628940 19426.0
13.415495380 19244.0
13.426361820 19539.0
13.437228260 19275.0
13.448094700 19395.0
13.458961140 19557.0
13.469827580 19364.0
13.480694020 19616.0
13.491560460 19420.0
13.502426900 19407.0
13.513293340 19387.0
13.524159780 19360.0
13.535026220 19143.0
13.545892660 19243.0
13.556759100 19209.0
13.567625540 19373.0
13.578491980 19320.0
13.589358420 19241.0
13.600224860 19347.0
13.611091300 19065.0
13.621957740 19061.0
13.632824180 19210.0
13.643690620 19005.0
13.654557060 19299.0
13.665423500 19400.0
13.676289940 19037.0
13.687156380 19197.0
13.698022820 18934.0
13.708889260 19028.0
13.719755700 19367.0
13.730622140 19209.0
13.741488580 19161.0
13.752355020 19017.0
13.763221460 19117.0
13.774087900 18920.0
13.784954340 19168.0
13.795820780 19136.0
13.806687220 18902.0
13.817553660 18905.0
13.828420100 19246.0
13.839286540 19086.0
13.850152980 19399.0
13.861019420 18944.0
13.871885860 18950.0
13.882752300 19280.0
13.893618740 19233.0
13.904485180 19208.0
13.915351620 18966.0
13.926218060 19094.0
13.937084500 19105.0
13.947950940 19039.0
13.958817380 18911.0
13.969683820 19171.0
13.980550260 18929.0
13.991416700 19147.0
14.002283140 18892.0
14.013149580 19068.0
14.024016020 19090.0
14.034882460 19017.0
14.045748900 19033.0
14.056615340 19202.0
14.067481780 19009.0
14.078348220 18768.0
14.089214660 18911.0
14.100081100 19015.0
14.110947540 18701.0
14.121813980 18964.0
14.132680420 18819.0
14.143546860 18657.0
14.154413300 19066.0
14.165279740 18705.0
14.176146180 18768.0
14.187012620 18985.0
14.197879060 18718.0
14.208745500 18880.0
14.219611940 19150.0
14.230478380 18912.0
14.241344820 18715.0
14.252211260 19200.0
14.263077700 18644.0
14.273944140 18755.0
14.284810580 19033.0
14.295677020 18850.0
14.306543460 18697.0
14.317409900 18716.0
14.328276340 18655.0
14.339142780 18701.0
14.350009220 18821.0
14.360875660 18944.0
14.371742100 18826.0
14.382608540 18814.0
14.393474980 18724.0
14.404341420 18566.0
14.415207860 18797.0
14.426074300 18683.0
14.436940740 18856.0
14.447807180 18538.0
14.458673620 18772.0
14.469540060 18756.0
14.480406500 18744.0
14.491272940 18802.0
14.502139380 18920.0
14.513005820 18582.0
14.523872260 18457.0
14.534738700 18789.0
14.545605140 18572.0
14.556471580 18693.0
14.567338020 18650.0
14.578204460 18581.0
14.589070900 18608.0
14.599937340 18571.0
14.610803780 18382.0
14.621670220 18387.0
14.632536660 18603.0
14.643403100 18586.0
14.654269540 18564.0
14.665135980 18674.0
14.676002420 18570.0
14.686868860 18653.0
14.697735300 18667.0
14.708601740 18494.0
14.719468180 18389.0
14.730334620 18766.0
14.741201060 18530.0
14.752067500 18462.0
14.762933940 18484.0
14.773800380 18514.0
14.784666820 18502.0
14.795533260 18736.0
14.806399700 18365.0
14.817266140 18174.0
14.828132580 18589.0
14.838999020 18524.0
14.849865460 18618.0
14.860731900 18272.0
14.871598340 18252.0
14.882464780 18474.0
14.893331220 18251.0
14.904197660 18576.0
14.915064100 18326.0
14.925930540 17985.0
14.936796980 18548.0
14.947663420 18102.0
14.958529860 18473.0
14.969396300 18536.0
14.980262740 18461.0
14.991129180 18169.0
15.001995620 18579.0
15.012862060 18356.0
15.023728500 18328.0
15.034594940 18396.0
15.045461380 18599.0
15.056327820 18285.0
15.067194260 18301.0
15.078060700 18277.0
15.088927140 18587.0
15.099793580 18096.0
15.110660020 18247.0
15.121526460 18431.0
15.132392900 18481.0
15.143259340 18257.0
15.154125780 18257.0
15.164992220 18082.0
15.175858660 18278.0
15.186725100 18406.0
15.197591540 18497.0
15.208457980 18440.0
15.219324420 18328.0
15.230190860 18020.0
15.241057300 18339.0
15.251923740 18276.0
15.262790180 18286.0
15.273656620 18461.0
15.284523060 18109.0
15.295389500 18507.0
15.306255940 18314.0
15.317122380 18409.0
15.327988820 18600.0
15.338855260 18248.0
15.349721700 18321.0
15.360588140 18625.0
15.371454580 18395.0
15.382321020 18611.0
15.393187460 18554.0
15.404053900 18400.0
15.414920340 18448.0
15.425786780 18478.0
15.436653220 18502.0
15.447519660 18522.0
15.458386100 18721.0
15.469252540 18570.0
15.480118980 18334.0
15.490985420 18515.0
15.501851860 18879.0
15.512718300 18666.0
15.523584740 19032.0
15.534451180 18930.0
15.545317620 19086.0
15.556184060 18979.0
15.567050500 19057.0
15.577916940 19188.0
15.588783380 19439.0
15.599649820 19489.0
15.610516260 19544.0
15.621382700 19683.0
15.632249140 19649.0
15.643115580 20192.0
15.653982020 20293.0
15.664848460 20618.0
15.675714900 21190.0
15.686581340 21263.0
15.697447780 21799.0
15.708314220 21987.0
15.719180660 22303.0
15.730047100 22984.0
15.740913540 23775.0
15.751779980 24094.0
15.762646420 24390.0
15.773512860 25100.0
15.784379300 25891.0
15.795245740 26015.0
15.806112180 26436.0
15.816978620 27021.0
15.827845060 27374.0
15.838711500 27555.0
15.849577940 27691.0
15.860444380 27917.0
15.871310820 28281.0
15.882177260 27930.0
15.893043700 27920.0
15.903910140 27207.0
15.914776580 26904.0
15.925643020 26212.0
15.936509460 25407.0
15.947375900 25201.0
15.958242340 24246.0
15.969108780 23674.0
15.979975220 22958.0
15.990841660 22675.0
16.001708100 21961.0
16.012574540 21567.0
16.023440980 20912.0
16.034307420 20437.0
16.045173860 20232.0
16.056040300 19957.0
16.066906740 19560.0
16.077773180 19441.0
16.088639620 18911.0
16.099506060 19009.0
16.110372500 18539.0
16.121238940 18470.0
16.132105380 18329.0
16.142971820 18449.0
16.153838260 18374.0
16.164704700 18267.0
16.175571140 18282.0
16.186437580 18153.0
16.197304020 18141.0
16.208170460 17888.0
16.219036900 18067.0
16.229903340 17900.0
16.240769780 18025.0
16.251636220 17825.0
16.262502660 17727.0
16.273369100 17935.0
16.284235540 17815.0
16.295101980 17823.0
16.305968420 18025.0
16.316834860 17954.0
16.327701300 17882.0
16.338567740 17830.0
16.349434180 17977.0
16.360300620 17742.0
16.371167060 17766.0
16.382033500 17885.0
16.392899940 17724.0
16.403766380 17653.0
16.414632820 17633.0
16.425499260 17582.0
16.436365700 17539.0
16.447232140 17607.0
16.458098580 17500.0
16.468965020 17715.0
16.479831460 17502.0
16.490697900 17680.0
16.501564340 17703.0
16.512430780 17484.0
16.523297220 17639.0
16.534163660 17524.0
16.545030100 17676.0
16.555896540 17650.0
16.566762980 17805.0
16.577629420 17466.0
16.588495860 17589.0
16.599362300 17456.0
16.610228740 17778.0
16.621095180 17747.0
16.631961620 17558.0
16.642828060 17669.0
16.653694500 17724.0
16.664560940 17662.0
16.675427380 17510.0
16.686293820 17533.0
16.697160260 17637.0
16.708026700 17615.0
16.718893140 17492.0
16.729759580 17364.0
16.740626020 17303.0
16.751492460 17371.0
16.762358900 17506.0
16.773225340 17171.0
16.784091780 17502.0
16.794958220 17499.0
16.805824660 17543.0
16.816691100 17335.0
16.827557540 17408.0
16.838423980 17530.0
16.849290420 17562.0
16.860156860 17410.0
16.871023300 17380.0
16.881889740 17503.0
16.892756180 17766.0
16.903622620 17352.0
16.914489060 17554.0
16.925355500 17105.0
16.936221940 17588.0
16.947088380 17175.0
16.957954820 17440.0
16.968821260 17548.0
16.979687700 17574.0
16.990554140 17913.0
17.001420580 17674.0
17.012287020 17438.0
17.023153460 17640.0
17.034019900 17407.0
17.044886340 17576.0
17.055752780 17323.0
17.066619220 17403.0
17.077485660 17519.0
17.088352100 17565.0
17.099218540 17802.0
17.110084980 17742.0
17.120951420 17508.0
17.131817860 17309.0
17.142684300 17311.0
17.153550740 17646.0
17.164417180 17149.0
17.175283620 17503.0
17.186150060 17534.0
17.197016500 17792.0
17.207882940 17615.0
17.218749380 17258.0
17.229615820 17532.0
17.240482260 17774.0
17.251348700 17542.0
17.262215140 17873.0
17.273081580 17674.0
17.283948020 17787.0
17.294814460 17885.0
17.305680900 17806.0
17.316547340 17786.0
17.327413780 17820.0
17.338280220 17933.0
17.349146660 17938.0
17.360013100 17823.0
17.370879540 17893.0
17.381745980 18232.0
17.392612420 18263.0
17.403478860 18320.0
17.414345300 18359.0
17.425211740 18199.0
17.436078180 18591.0
17.446944620 18634.0
17.457811060 18658.0
17.468677500 18883.0
17.479543940 19370.0
17.490410380 19292.0
17.501276820 19425.0
17.512143260 19923.0
17.523009700 20270.0
17.533876140 20328.0
17.544742580 21109.0
17.555609020 21351.0
17.566475460 22130.0
17.577341900 22327.0
17.588208340 23364.0
17.599074780 23772.0
17.609941220 24976.0
17.620807660 26072.0
17.631674100 27133.0
17.642540540 28109.0
17.653406980 29489.0
17.664273420 30835.0
17.675139860 31785.0
17.686006300 33399.0
17.696872740 34536.0
17.707739180 35658.0
17.718605620 36507.0
17.729472060 36921.0
17.740338500 37810.0
17.751204940 37695.0
17.762071380 38030.0
17.772937820 37319.0
17.783804260 36567.0
17.794670700 35677.0
17.805537140 34705.0
17.816403580 33080.0
17.827270020 31457.0
17.838136460 29390.0
17.849002900 27592.0
17.859869340 25696.0
17.870735780 24376.0
17.881602220 23171.0
17.892468660 21925.0
17.903335100 21046.0
17.914201540 20473.0
17.925067980 19761.0
17.935934420 19229.0
17.946800860 18646.0
17.957667300 18595.0
17.968533740 18201.0
17.979400180 18123.0
17.990266620 17790.0
18.001133060 17717.0
18.011999500 17617.0
18.022865940 17843.0
18.033732380 17692.0
18.044598820 17589.0
18.055465260 17608.0
18.066331700 17479.0
18.077198140 17598.0
18.088064580 17591.0
18.098931020 17281.0
18.109797460 17590.0
18.120663900 17315.0
18.131530340 17652.0
18.142396780 17132.0
18.153263220 17156.0
18.164129660 17340.0
18.174996100 17130.0
18.185862540 17403.0
18.196728980 17036.0
18.207595420 17126.0
18.218461860 17239.0
18.229328300 17129.0
18.240194740 16998.0
18.251061180 17212.0
18.261927620 17159.0
18.272794060 17279.0
18.283660500 17071.0
18.294526940 16936.0
18.305393380 17183.0
18.316259820 16973.0
18.327126260 17028.0
18.337992700 17068.0
18.348859140 16951.0
18.359725580 17166.0
18.370592020 17019.0
18.381458460 17134.0
18.392324900 17129.0
18.403191340 16951.0
18.414057780 17286.0
18.424924220 16820.0
18.435790660 16928.0
18.446657100 16989.0
18.457523540 17086.0
18.468389980 17224.0
18.479256420 17191.0
18.490122860 17190.0
18.500989300 16905.0
18.511855740 16888.0
18.522722180 16898.0
18.533588620 17021.0
18.544455060 17134.0
18.555321500 17041.0
18.566187940 17021.0
18.577054380 16874.0
18.587920820 16851.0
18.598787260 16974.0
18.609653700 16987.0
18.620520140 16922.0
18.631386580 16811.0
18.642253020 16774.0
18.653119460 16788.0
18.663985900 16832.0
18.674852340 16996.0
18.685718780 17277.0
18.696585220 16844.0
18.707451660 16958.0
18.718318100 16765.0
18.729184540 16963.0
18.740050980 16743.0
18.750917420 16795.0
18.761783860 16874.0
18.772650300 16889.0
18.783516740 16935.0
18.794383180 17012.0
18.805249620 16659.0
18.816116060 16881.0
18.826982500 16620.0
18.837848940 16903.0
18.848715380 16915.0
18.859581820 16837.0
18.870448260 16759.0
18.881314700 16885.0
18.892181140 16812.0
18.903047580 16636.0
18.913914020 16765.0
18.924780460 16932.0
18.935646900 16993.0
18.946513340 16922.0
18.957379780 16813.0
18.968246220 16662.0
18.979112660 17043.0
18.989979100 16938.0
19.000845540 16785.0
19.011711980 16833.0
19.022578420 16531.0
19.033444860 16737.0
19.044311300 16917.0
19.055177740 16930.0
19.066044180 16750.0
19.076910620 16808.0
19.087777060 17141.0
19.098643500 16897.0
19.109509940 16622.0
19.120376380 17081.0
19.131242820 16769.0
19.142109260 16718.0
19.152975700 16696.0
19.163842140 16717.0
19.174708580 16796.0
19.185575020 16858.0
19.196441460 16875.0
19.207307900 16707.0
19.218174340 16672.0
19.229040780 16777.0
19.239907220 16943.0
19.250773660 16418.0
19.261640100 16841.0
19.272506540 16726.0
19.283372980 16581.0
19.294239420 16718.0
19.305105860 16757.0
19.315972300 16724.0
19.326838740 16816.0
19.337705180 16359.0
19.348571620 16891.0
19.359438060 16474.0
19.370304500 16787.0
19.381170940 16951.0
19.392037380 17018.0
19.402903820 16730.0
19.413770260 16829.0
19.424636700 16693.0
19.435503140 16618.0
19.446369580 16714.0
19.457236020 16903.0
19.468102460 16526.0
19.478968900 16659.0
19.489835340 16909.0
19.500701780 16590.0
19.511568220 16909.0
19.522434660 16923.0
19.533301100 16696.0
19.544167540 16725.0
19.555033980 16796.0
19.565900420 16480.0
19.576766860 16671.0
19.587633300 16769.0
19.598499740 16812.0
19.609366180 16947.0
19.620232620 16793.0
19.631099060 16572.0
19.641965500 16583.0
19.652831940 16598.0
19.663698380 16614.0
19.674564820 16782.0
19.685431260 16640.0
19.696297700 16627.0
19.707164140 16708.0
19.718030580 16531.0
19.728897020 16764.0
19.739763460 16754.0
19.750629900 16712.0
19.761496340 16873.0
19.772362780 16626.0
19.783229220 16637.0
19.794095660 16728.0
19.804962100 16847.0
19.815828540 16701.0
19.826694980 17025.0
19.837561420 16692.0
19.848427860 16554.0
19.859294300 16670.0
19.870160740 16684.0
19.881027180 16617.0
19.891893620 16657.0
19.902760060 17005.0
19.913626500 16666.0
19.924492940 16359.0
19.935359380 16578.0
19.946225820 16532.0
19.957092260 16510.0
19.967958700 16417.0
19.978825140 16566.0
19.989691580 16578.0
20.000558020 16575.0
20.011424460 16792.0
20.022290900 16576.0
20.033157340 16711.0
20.044023780 16484.0
20.054890220 16354.0
20.065756660 16595.0
20.076623100 16693.0
20.087489540 16486.0
20.098355980 16746.0
20.109222420 16687.0
20.120088860 16879.0
20.130955300 16792.0
20.141821740 16442.0
20.152688180 16664.0
20.163554620 16618.0
20.174421060 16893.0
20.185287500 16521.0
20.196153940 16922.0
20.207020380 16689.0
20.217886820 16587.0
20.228753260 16394.0
20.239619700 16874.0
20.250486140 16410.0
20.261352580 16546.0
20.272219020 16539.0
20.283085460 16556.0
20.293951900 16756.0
20.304818340 16674.0
20.315684780 16552.0
20.326551220 16610.0
20.337417660 16448.0
20.348284100 16689.0
20.359150540 16632.0
20.370016980 16768.0
20.380883420 16466.0
20.391749860 16627.0
20.402616300 16276.0
20.413482740 16604.0
20.424349180 16436.0
20.435215620 16544.0
20.446082060 16437.0
20.456948500 16616.0
20.467814940 16476.0
20.478681380 16622.0
20.489547820 16324.0
20.500414260 16649.0
20.511280700 16554.0
20.522147140 16872.0
20.533013580 16584.0
20.543880020 16446.0
20.554746460 16878.0
20.565612900 16564.0
20.576479340 16614.0
20.587345780 16737.0
20.598212220 16474.0
20.609078660 16639.0
20.619945100 16589.0
20.630811540 16583.0
20.641677980 16582.0
20.652544420 16585.0
20.663410860 16697.0
20.674277300 16758.0
20.685143740 16556.0
20.696010180 16673.0
20.706876620 16567.0
20.717743060 16807.0
20.728609500 16246.0
20.739475940 16793.0
20.750342380 16619.0
20.761208820 16802.0
20.772075260 16601.0
20.782941700 16635.0
20.793808140 16573.0
20.804674580 16600.0
20.815541020 16704.0
20.826407460 16846.0
20.837273900 16556.0
20.848140340 16636.0
20.859006780 16644.0
20.869873220 16497.0
20.880739660 16423.0
20.891606100 16846.0
20.902472540 16663.0
20.913338980 16739.0
20.924205420 16404.0
20.935071860 16673.0
20.945938300 16378.0
20.956804740 16534.0
20.967671180 16561.0
20.978537620 16999.0
20.989404060 16580.0
21.000270500 16586.0
21.011136940 16400.0
21.022003380 16591.0
21.032869820 16591.0
21.043736260 16665.0
21.054602700 16718.0
21.065469140 16393.0
21.076335580 16344.0
21.087202020 16518.0
21.098068460 16399.0
21.108934900 16718.0
21.119801340 16579.0
21.130667780 16757.0
21.141534220 16320.0
21.152400660 16543.0
21.163267100 16442.0
21.174133540 16681.0
21.184999980 16429.0
21.195866420 16682.0
21.206732860 16349.0
21.217599300 16583.0
21.228465740 16165.0
21.239332180 16521.0
21.250198620 16525.0
21.261065060 16703.0
21.271931500 16380.0
21.282797940 16544.0
21.293664380 16546.0
21.304530820 16569.0
21.315397260 16491.0
21.326263700 16310.0
21.337130140 16447.0
21.347996580 16691.0
21.358863020 16427.0
21.369729460 16788.0
21.380595900 16531.0
21.391462340 16616.0
21.402328780 16433.0
21.413195220 16333.0
21.424061660 16592.0
21.434928100 16376.0
21.445794540 16540.0
21.456660980 16219.0
21.467527420 16476.0
21.478393860 16344.0
21.489260300 16474.0
21.500126740 16500.0
21.510993180 16567.0
21.521859620 16526.0
21.532726060 16539.0
21.543592500 16617.0
21.554458940 16475.0
21.565325380 16607.0
21.576191820 16485.0
21.587058260 16338.0
21.597924700 16009.0
21.608791140 16712.0
21.619657580 16555.0
21.630524020 16812.0
21.641390460 16312.0
21.652256900 16774.0
21.663123340 16431.0
21.673989780 16217.0
21.684856220 16379.0
21.695722660 16613.0
21.706589100 16322.0
21.717455540 16539.0
21.728321980 16553.0
21.739188420 16682.0
21.750054860 16489.0
21.760921300 16423.0
21.771787740 16432.0
21.782654180 16760.0
21.793520620 16483.0
21.804387060 16742.0
21.815253500 16317.0
21.826119940 16555.0
21.836986380 16522.0
21.847852820 16767.0
21.858719260 16348.0
21.869585700 16441.0
21.880452140 16421.0
21.891318580 16807.0
21.902185020 16394.0
21.913051460 16511.0
21.923917900 16411.0
21.934784340 16509.0
21.945650780 16401.0
21.956517220 16555.0
21.967383660 16278.0
21.978250100 16517.0
21.989116540 16469.0
21.999982980 16789.0
22.010849420 16585.0
22.021715860 16724.0
22.032582300 16464.0
22.043448740 16763.0
22.054315180 16625.0
22.065181620 16625.0
22.076048060 16556.0
22.086914500 16451.0
22.097780940 16440.0
22.108647380 16713.0
22.119513820 16770.0
22.130380260 16664.0
22.141246700 16724.0
22.152113140 16787.0
22.162979580 16760.0
22.173846020 16943.0
22.184712460 16771.0
22.195578900 16958.0
22.206445340 16714.0
22.217311780 16858.0
22.228178220 16781.0
22.239044660 16802.0
22.249911100 16847.0
22.260777540 16838.0
22.271643980 16811.0
22.282510420 17298.0
22.293376860 17236.0
22.304243300 17592.0
22.315109740 17520.0
22.325976180 17637.0
22.336842620 18027.0
22.347709060 18118.0
22.358575500 18443.0
22.369441940 18729.0
22.380308380 19006.0
22.391174820 19657.0
22.402041260 19930.0
22.412907700 20778.0
22.423774140 21233.0
22.434640580 21491.0
22.445507020 21966.0
22.456373460 22858.0
22.467239900 23178.0
22.478106340 23799.0
22.488972780 24397.0
22.499839220 24840.0
22.510705660 24823.0
22.521572100 24935.0
22.532438540 24658.0
22.543304980 24332.0
22.554171420 24190.0
22.565037860 23574.0
22.575904300 22986.0
22.586770740 22208.0
22.597637180 21665.0
22.608503620 20868.0
22.619370060 20130.0
22.630236500 19570.0
22.641102940 18889.0
22.651969380 18592.0
22.662835820 18024.0
22.673702260 17884.0
22.684568700 17563.0
22.695435140 17375.0
22.706301580 17019.0
22.717168020 16983.0
22.728034460 16861.0
22.738900900 16875.0
22.749767340 16711.0
22.760633780 16688.0
22.771500220 16643.0
22.782366660 16623.0
22.793233100 16685.0
22.804099540 16869.0
22.814965980 16776.0
22.825832420 16665.0
22.836698860 16347.0
22.847565300 16731.0
22.858431740 16531.0
22.869298180 16474.0
22.880164620 16182.0
22.891031060 16561.0
22.901897500 16601.0
22.912763940 16557.0
22.923630380 16577.0
22.934496820 16447.0
22.945363260 16161.0
22.956229700 16324.0
22.967096140 16481.0
22.977962580 16502.0
22.988829020 16349.0
22.999695460 16399.0
23.010561900 16258.0
23.021428340 16542.0
23.032294780 16460.0
23.043161220 16494.0
23.054027660 16400.0
23.064894100 16618.0
23.075760540 16207.0
23.086626980 16360.0
23.097493420 16124.0
23.108359860 16442.0
23.119226300 16407.0
23.130092740 16185.0
23.140959180 16218.0
23.151825620 16282.0
23.162692060 16190.0
23.173558500 16305.0
23.184424940 16385.0
23.195291380 16221.0
23.206157820 16353.0
23.217024260 16475.0
23.227890700 16447.0
23.238757140 16604.0
23.249623580 16197.0
23.260490020 16246.0
23.271356460 16111.0
23.282222900 16169.0
23.293089340 16096.0
23.303955780 16347.0
23.314822220 16213.0
23.325688660 16298.0
23.336555100 16155.0
23.347421540 16336.0
23.358287980 16135.0
23.369154420 16310.0
23.380020860 16337.0
23.390887300 16283.0
23.401753740 16235.0
23.412620180 16339.0
23.423486620 16176.0
23.434353060 16125.0
23.445219500 16305.0
23.456085940 16223.0
23.466952380 16039.0
23.477818820 16213.0
23.488685260 16379.0
23.499551700 16200.0
23.510418140 16123.0
23.521284580 16165.0
23.532151020 15992.0
23.543017460 16038.0
23.553883900 16144.0
23.564750340 15882.0
23.575616780 16147.0
23.586483220 16289.0
23.597349660 16205.0
23.608216100 16163.0
23.619082540 16284.0
23.629948980 16081.0
23.640815420 16243.0
23.651681860 16243.0
23.662548300 15954.0
23.673414740 16362.0
23.684281180 16190.0
23.695147620 16101.0
23.706014060 16172.0
23.716880500 16307.0
23.727746940 15912.0
23.738613380 16250.0
23.749479820 16105.0
23.760346260 15974.0
23.771212700 16015.0
23.782079140 16415.0
23.792945580 16051.0
23.803812020 16256.0
23.814678460 16044.0
23.825544900 16096.0
23.836411340 16131.0
23.847277780 16352.0
23.858144220 16088.0
23.869010660 16019.0
23.879877100 16126.0
23.890743540 16158.0
23.901609980 16015.0
23.912476420 16240.0
23.923342860 16100.0
23.934209300 16529.0
23.945075740 16238.0
23.955942180 16379.0
23.966808620 16300.0
23.977675060 16187.0
23.988541500 16277.0
23.999407940 16347.0
24.010274380 16074.0
24.021140820 15897.0
24.032007260 16112.0
24.042873700 16280.0
24.053740140 16032.0
24.064606580 16088.0
24.075473020 16353.0
24.086339460 16294.0
24.097205900 16301.0
24.108072340 16339.0
24.118938780 16184.0
24.129805220 16106.0
24.140671660 16289.0
24.151538100 16066.0
24.162404540 16213.0
24.173270980 16298.0
24.184137420 16162.0
24.195003860 15853.0
24.205870300 16412.0
24.216736740 16201.0
24.227603180 16332.0
24.238469620 16185.0
24.249336060 16108.0
24.260202500 16537.0
24.271068940 16104.0
24.281935380 16245.0
24.292801820 16371.0
24.303668260 16358.0
24.314534700 16338.0
24.325401140 16679.0
24.336267580 16298.0
24.347134020 16527.0
24.358000460 16215.0
24.368866900 16587.0
24.379733340 16610.0
24.390599780 16518.0
24.401466220 16508.0
24.412332660 16697.0
24.423199100 16313.0
24.434065540 16961.0
24.444931980 16535.0
24.455798420 16811.0
24.466664860 16616.0
24.477531300 16826.0
24.488397740 16769.0
24.499264180 17050.0
24.510130620 16833.0
24.520997060 17003.0
24.531863500 16653.0
24.542729940 16921.0
24.553596380 16877.0
24.564462820 17119.0
24.575329260 16995.0
24.586195700 17062.0
24.597062140 17231.0
24.607928580 17273.0
24.618795020 17503.0
24.629661460 17564.0
24.640527900 17910.0
24.651394340 17734.0
24.662260780 18117.0
24.673127220 18183.0
24.683993660 17957.0
24.694860100 18142.0
24.705726540 17899.0
24.716592980 18117.0
24.727459420 18353.0
24.738325860 18079.0
24.749192300 17895.0
24.760058740 17914.0
24.770925180 17738.0
24.781791620 17605.0
24.792658060 17843.0
24.803524500 17791.0
24.814390940 17642.0
24.825257380 17879.0
24.836123820 17907.0
24.846990260 17980.0
24.857856700 18542.0
24.868723140 18325.0
24.879589580 18454.0
24.890456020 18621.0
24.901322460 19167.0
24.912188900 19503.0
24.923055340 19679.0
24.933921780 20361.0
24.944788220 20969.0
24.955654660 21666.0
24.966521100 22404.0
24.977387540 23220.0
24.988253980 24233.0
24.999120420 25537.0
25.009986860 26505.0
25.020853300 27730.0
25.031719740 29056.0
25.042586180 30458.0
25.053452620 31788.0
25.064319060 33087.0
25.075185500 34096.0
25.086051940 35539.0
25.096918380 36601.0
25.107784820 37656.0
25.118651260 38242.0
25.129517700 38424.0
25.140384140 39183.0
25.151250580 39341.0
25.162117020 38966.0
25.172983460 38972.0
25.183849900 38896.0
25.194716340 38510.0
25.205582780 38130.0
25.216449220 37431.0
25.227315660 37524.0
25.238182100 36498.0
25.249048540 36802.0
25.259914980 36083.0
25.270781420 35257.0
25.281647860 34934.0
25.292514300 33632.0
25.303380740 32370.0
25.314247180 31265.0
25.325113620 29984.0
25.335980060 28562.0
25.346846500 27069.0
25.357712940 25506.0
25.368579380 24385.0
25.379445820 23084.0
25.390312260 22138.0
25.401178700 21174.0
25.412045140 20314.0
25.422911580 19419.0
25.433778020 19366.0
25.444644460 18342.0
25.455510900 18108.0
25.466377340 17787.0
25.477243780 17592.0
25.488110220 17477.0
25.498976660 17306.0
25.509843100 17143.0
25.520709540 17298.0
25.531575980 16955.0
25.542442420 16996.0
25.553308860 16651.0
25.564175300 17265.0
25.575041740 16659.0
25.585908180 16861.0
25.596774620 16754.0
25.607641060 16803.0
25.618507500 16699.0
25.629373940 16726.0
25.640240380 16743.0
25.651106820 16546.0
25.661973260 16741.0
25.672839700 16757.0
25.683706140 16629.0
25.694572580 16560.0
25.705439020 16726.0
25.716305460 16578.0
25.727171900 16467.0
25.738038340 17055.0
25.748904780 16792.0
25.759771220 16754.0
25.770637660 16972.0
25.781504100 17181.0
25.792370540 17113.0
25.803236980 17158.0
25.814103420 16953.0
25.824969860 17240.0
25.835836300 17132.0
25.846702740 17590.0
25.857569180 17747.0
25.868435620 17517.0
25.879302060 17708.0
25.890168500 18259.0
25.901034940 17816.0
25.911901380 18061.0
25.922767820 17859.0
25.933634260 18084.0
25.944500700 18301.0
25.955367140 18506.0
25.966233580 18574.0
25.977100020 18663.0
25.987966460 18343.0
25.998832900 18432.0
26.009699340 17968.0
26.020565780 17924.0
26.031432220 17866.0
26.042298660 17973.0
26.053165100 17748.0
26.064031540 17939.0
26.074897980 17573.0
26.085764420 17590.0
26.096630860 17475.0
26.107497300 17633.0
26.118363740 17579.0
26.129230180 17648.0
26.140096620 17939.0
26.150963060 17584.0
26.161829500 17598.0
26.172695940 17922.0
26.183562380 17784.0
26.194428820 17831.0
26.205295260 17918.0
26.216161700 17980.0
26.227028140 18104.0
26.237894580 18224.0
26.248761020 18163.0
26.259627460 18873.0
26.270493900 18986.0
26.281360340 18879.0
26.292226780 19117.0
26.303093220 19076.0
26.313959660 19047.0
26.324826100 19460.0
26.335692540 19950.0
26.346558980 20330.0
26.357425420 20510.0
26.368291860 20728.0
26.379158300 21292.0
26.390024740 21744.0
26.400891180 22258.0
26.411757620 22510.0
26.422624060 23079.0
26.433490500 24108.0
26.444356940 24909.0
26.455223380 25700.0
26.466089820 26699.0
26.476956260 28250.0
26.487822700 29634.0
26.498689140 31320.0
26.509555580 32356.0
26.520422020 34690.0
26.531288460 36093.0
26.542154900 38435.0
26.553021340 40717.0
26.563887780 42822.0
26.574754220 44565.0
26.585620660 46852.0
26.596487100 48492.0
26.607353540 50214.0
26.618219980 51420.0
26.629086420 53076.0
26.639952860 53930.0
26.650819300 54321.0
26.661685740 54458.0
26.672552180 53856.0
26.683418620 52876.0
26.694285060 51564.0
26.705151500 49924.0
26.716017940 48405.0
26.726884380 46002.0
26.737750820 44194.0
26.748617260 41544.0
26.759483700 39954.0
26.770350140 37741.0
26.781216580 35908.0
26.792083020 33736.0
26.802949460 32430.0
26.813815900 30315.0
26.824682340 29264.0
26.835548780 28298.0
26.846415220 27034.0
26.857281660 25863.0
26.868148100 25312.0
26.879014540 24442.0
26.889880980 23805.0
26.900747420 23244.0
26.911613860 22376.0
26.922480300 22093.0
26.933346740 21863.0
26.944213180 21178.0
26.955079620 21021.0
26.965946060 20394.0
26.976812500 20108.0
26.987678940 19546.0
26.998545380 19635.0
27.009411820 19319.0
27.020278260 19208.0
27.031144700 18599.0
27.042011140 18582.0
27.052877580 18397.0
27.063744020 18207.0
27.074610460 18228.0
27.085476900 17909.0
27.096343340 17978.0
27.107209780 17919.0
27.118076220 17442.0
27.128942660 17360.0
27.139809100 17299.0
27.150675540 17100.0
27.161541980 17272.0
27.172408420 17221.0
27.183274860 16918.0
27.194141300 16944.0
27.205007740 16501.0
27.215874180 16686.0
27.226740620 16529.0
27.237607060 16648.0
27.248473500 16506.0
27.259339940 16334.0
27.270206380 16531.0
27.281072820 16441.0
27.291939260 16278.0
27.302805700 16210.0
27.313672140 16048.0
27.324538580 16157.0
27.335405020 15773.0
27.346271460 15703.0
27.357137900 16035.0
27.368004340 16135.0
27.378870780 15862.0
27.389737220 15843.0
27.400603660 15960.0
27.411470100 15834.0
27.422336540 15892.0
27.433202980 15824.0
27.444069420 15970.0
27.454935860 15718.0
27.465802300 15641.0
27.476668740 15753.0
27.487535180 15603.0
27.498401620 15633.0
27.509268060 15437.0
27.520134500 15604.0
27.531000940 15552.0
27.541867380 15664.0
27.552733820 15513.0
27.563600260 15493.0
27.574466700 15554.0
27.585333140 15537.0
27.596199580 15393.0
27.607066020 15466.0
27.617932460 15383.0
27.628798900 15543.0
27.639665340 15507.0
27.650531780 15393.0
27.661398220 15373.0
27.672264660 15469.0
27.683131100 15172.0
27.693997540 15468.0
27.704863980 15284.0
27.715730420 15193.0
27.726596860 15419.0
27.737463300 15094.0
27.748329740 15217.0
27.759196180 15322.0
27.770062620 15478.0
27.780929060 15418.0
27.791795500 15051.0
27.802661940 15270.0
27.813528380 15394.0
27.824394820 15312.0
27.835261260 15369.0
27.846127700 15319.0
27.856994140 15154.0
27.867860580 14928.0
27.878727020 15442.0
27.889593460 15092.0
27.900459900 15136.0
27.911326340 15471.0
27.922192780 15301.0
27.933059220 15329.0
27.943925660 15216.0
27.954792100 15077.0
27.965658540 15291.0
27.976524980 15285.0
27.987391420 15053.0
27.998257860 15340.0
28.009124300 15266.0
28.019990740 15314.0
28.030857180 15305.0
28.041723620 15205.0
28.052590060 15381.0
28.063456500 15421.0
28.074322940 15292.0
28.085189380 15086.0
28.096055820 15216.0
28.106922260 15275.0
28.117788700 15273.0
28.128655140 15392.0
28.139521580 15383.0
28.150388020 15430.0
28.161254460 15390.0
28.172120900 15395.0
28.182987340 15665.0
28.193853780 15725.0
28.204720220 15861.0
28.215586660 15638.0
28.226453100 15955.0
28.237319540 15850.0
28.248185980 16127.0
28.259052420 15841.0
28.269918860 16277.0
28.280785300 16257.0
28.291651740 16284.0
28.302518180 16303.0
28.313384620 16338.0
28.324251060 16428.0
28.335117500 16029.0
28.345983940 16173.0
28.356850380 16035.0
28.367716820 16072.0
28.378583260 16041.0
28.389449700 16347.0
28.400316140 15995.0
28.411182580 15682.0
28.422049020 15895.0
28.432915460 15982.0
28.443781900 15734.0
28.454648340 15814.0
28.465514780 15901.0
28.476381220 15764.0
28.487247660 15608.0
28.498114100 15608.0
28.508980540 15749.0
28.519846980 16064.0
28.530713420 16007.0
28.541579860 16263.0
28.552446300 16028.0
28.563312740 16451.0
28.574179180 16422.0
28.585045620 16910.0
28.595912060 17403.0
28.606778500 17818.0
28.617644940 18382.0
28.628511380 18619.0
28.639377820 19179.0
28.650244260 19640.0
28.661110700 20279.0
28.671977140 21129.0
28.682843580 21599.0
28.693710020 22220.0
28.704576460 22445.0
28.715442900 23480.0
28.726309340 23336.0
28.737175780 23632.0
28.748042220 23755.0
28.758908660 24085.0
28.769775100 24000.0
28.780641540 23955.0
28.791507980 23242.0
28.802374420 22658.0
28.813240860 22434.0
28.824107300 22108.0
28.834973740 21501.0
28.845840180 20742.0
28.856706620 19942.0
28.867573060 19234.0
28.878439500 18632.0
28.889305940 17883.0
28.900172380 17479.0
28.911038820 17143.0
28.921905260 16519.0
28.932771700 16012.0
28.943638140 15825.0
28.954504580 15500.0
28.965371020 15399.0
28.976237460 15022.0
28.987103900 14997.0
28.997970340 14864.0
29.008836780 14773.0
29.019703220 14570.0
29.030569660 14665.0
29.041436100 14569.0
29.052302540 14686.0
29.063168980 14385.0
29.074035420 14810.0
29.084901860 14313.0
29.095768300 14356.0
29.106634740 14414.0
29.117501180 14391.0
29.128367620 14475.0
29.139234060 14375.0
29.150100500 14490.0
29.160966940 14546.0
29.171833380 14527.0
29.182699820 14474.0
29.193566260 14289.0
29.204432700 14428.0
29.215299140 14700.0
29.226165580 14646.0
29.237032020 14654.0
29.247898460 14671.0
29.258764900 14937.0
29.269631340 15279.0
29.280497780 15146.0
29.291364220 15447.0
29.302230660 15921.0
29.313097100 16167.0
29.323963540 16481.0
29.334829980 17125.0
29.345696420 17835.0
29.356562860 18171.0
29.367429300 18705.0
29.378295740 19208.0
29.389162180 20106.0
29.400028620 20734.0
29.410895060 20939.0
29.421761500 21477.0
29.432627940 22098.0
29.443494380 22596.0
29.454360820 22491.0
29.465227260 22400.0
29.476093700 22415.0
29.486960140 21824.0
29.497826580 21043.0
29.508693020 20525.0
29.519559460 19992.0
29.530425900 19275.0
29.541292340 18551.0
29.552158780 18120.0
29.563025220 17223.0
29.573891660 16313.0
29.584758100 16020.0
29.595624540 15596.0
29.606490980 14945.0
29.617357420 14782.0
29.628223860 14508.0
29.639090300 14557.0
29.649956740 14233.0
29.660823180 14029.0
29.671689620 13864.0
29.682556060 13915.0
29.693422500 13964.0
29.704288940 13875.0
29.715155380 13856.0
29.726021820 13817.0
29.736888260 13758.0
29.747754700 13849.0
29.758621140 13848.0
29.769487580 13670.0
29.780354020 13330.0
29.791220460 13753.0
29.802086900 13497.0
29.812953340 13572.0
29.823819780 13273.0
29.834686220 13514.0
29.845552660 13719.0
29.856419100 13571.0
29.867285540 13543.0
29.878151980 13545.0
29.889018420 13641.0
29.899884860 13584.0
29.910751300 13795.0
29.921617740 13554.0
29.932484180 13582.0
29.943350620 13442.0
29.954217060 13637.0
29.965083500 13371.0
29.975949940 13561.0
29.986816380 13350.0
29.997682820 13555.0
30.008549260 13281.0
30.019415700 13422.0
30.030282140 13604.0
30.041148580 13554.0
30.052015020 13172.0
30.062881460 13313.0
30.073747900 13246.0
30.084614340 13483.0
30.095480780 13393.0
30.106347220 13353.0
30.117213660 13404.0
30.128080100 13555.0
30.138946540 13315.0
30.149812980 13488.0
30.160679420 13309.0
30.171545860 13453.0
30.182412300 13459.0
30.193278740 13233.0
30.204145180 13293.0
30.215011620 13305.0
30.225878060 13202.0
30.236744500 13241.0
30.247610940 13328.0
30.258477380 13322.0
30.269343820 13251.0
30.280210260 13294.0
30.291076700 13248.0
30.301943140 13123.0
30.312809580 13245.0
30.323676020 13352.0
30.334542460 13273.0
30.345408900 12997.0
30.356275340 13320.0
30.367141780 13261.0
30.378008220 13230.0
30.388874660 13084.0
30.399741100 13305.0
30.410607540 13160.0
30.421473980 13147.0
30.432340420 13141.0
30.443206860 13294.0
30.454073300 13173.0
30.464939740 13388.0
30.475806180 13058.0
30.486672620 13230.0
30.497539060 13291.0
30.508405500 13170.0
30.519271940 13039.0
30.530138380 13299.0
30.541004820 13133.0
30.551871260 12829.0
30.562737700 13019.0
30.573604140 13124.0
30.584470580 13131.0
30.595337020 13230.0
30.606203460 12936.0
30.617069900 13116.0
30.627936340 13364.0
30.638802780 13107.0
30.649669220 12911.0
30.660535660 13121.0
30.671402100 12836.0
30.682268540 12933.0
30.693134980 12968.0
30.704001420 13206.0
30.714867860 13137.0
30.725734300 13054.0
30.736600740 12905.0
30.747467180 12967.0
30.758333620 13367.0
30.769200060 13169.0
30.780066500 12979.0
30.790932940 13087.0
30.801799380 12853.0
30.812665820 13114.0
30.823532260 12718.0
30.834398700 13100.0
30.845265140 12893.0
30.856131580 13015.0
30.866998020 12899.0
30.877864460 13134.0
30.888730900 12824.0
30.899597340 13034.0
30.910463780 12786.0
30.921330220 12750.0
30.932196660 12991.0
30.943063100 12977.0
30.953929540 12861.0
30.964795980 12840.0
30.975662420 13061.0
30.986528860 13042.0
30.997395300 12807.0
31.008261740 12716.0
31.019128180 12981.0
31.029994620 12889.0
31.040861060 12649.0
31.051727500 12965.0
31.062593940 12815.0
31.073460380 12689.0
31.084326820 12628.0
31.095193260 12905.0
31.106059700 12852.0
31.116926140 12977.0
31.127792580 12504.0
31.138659020 12803.0
31.149525460 12746.0
31.160391900 12803.0
31.171258340 13007.0
31.182124780 13076.0
31.192991220 12730.0
31.203857660 12766.0
31.214724100 12815.0
31.225590540 13107.0
31.236456980 12867.0
31.247323420 12876.0
31.258189860 12806.0
31.269056300 12965.0
31.279922740 13040.0
31.290789180 13029.0
31.301655620 12796.0
31.312522060 12955.0
31.323388500 12932.0
31.334254940 13026.0
31.345121380 13096.0
31.355987820 12820.0
31.366854260 12845.0
31.377720700 13015.0
31.388587140 12690.0
31.399453580 12887.0
31.410320020 13076.0
31.421186460 12865.0
31.432052900 12855.0
31.442919340 12687.0
31.453785780 12841.0
31.464652220 13018.0
31.475518660 12667.0
31.486385100 12822.0
31.497251540 12619.0
31.508117980 12763.0
31.518984420 12745.0
31.529850860 12588.0
31.540717300 12576.0
31.551583740 12647.0
31.562450180 12531.0
31.573316620 12804.0
31.584183060 12498.0
31.595049500 12748.0
31.605915940 12684.0
31.616782380 12592.0
31.627648820 12358.0
31.638515260 12494.0
31.649381700 12511.0
31.660248140 12704.0
31.671114580 12480.0
31.681981020 12456.0
31.692847460 12595.0
31.703713900 12834.0
31.714580340 12429.0
31.725446780 12543.0
31.736313220 12351.0
31.747179660 12326.0
31.758046100 12642.0
31.768912540 12597.0
31.779778980 12408.0
31.790645420 12512.0
31.801511860 12533.0
31.812378300 12588.0
31.823244740 12407.0
31.834111180 12392.0
31.844977620 12367.0
31.855844060 12561.0
31.866710500 12518.0
31.877576940 12553.0
31.888443380 12516.0
31.899309820 12291.0
31.910176260 12478.0
31.921042700 12679.0
31.931909140 12286.0
31.942775580 12479.0
31.953642020 12253.0
31.964508460 12308.0
31.975374900 12334.0
31.986241340 12304.0
31.997107780 12370.0
32.007974220 12333.0
32.018840660 12429.0
32.029707100 12304.0
32.040573540 12285.0
32.051439980 12299.0
32.062306420 12351.0
32.073172860 12248.0
32.084039300 12201.0
32.094905740 12485.0
32.105772180 12368.0
32.116638620 12277.0
32.127505060 12488.0
32.138371500 12209.0
32.149237940 12145.0
32.160104380 12426.0
32.170970820 12381.0
32.181837260 12301.0
32.192703700 12205.0
32.203570140 12315.0
32.214436580 12419.0
32.225303020 12269.0
32.236169460 12121.0
32.247035900 12370.0
32.257902340 12554.0
32.268768780 12467.0
32.279635220 12288.0
32.290501660 12473.0
32.301368100 12521.0
32.312234540 12603.0
32.323100980 12483.0
32.333967420 12626.0
32.344833860 12663.0
32.355700300 12664.0
32.366566740 12810.0
32.377433180 12919.0
32.388299620 13033.0
32.399166060 13342.0
32.410032500 13348.0
32.420898940 13925.0
32.431765380 13727.0
32.442631820 14219.0
32.453498260 14670.0
32.464364700 15045.0
32.475231140 15687.0
32.486097580 16394.0
32.496964020 16643.0
32.507830460 17466.0
32.518696900 18069.0
32.529563340 19000.0
32.540429780 19506.0
32.551296220 20194.0
32.562162660 20728.0
32.573029100 21356.0
32.583895540 21559.0
32.594761980 21715.0
32.605628420 21484.0
32.616494860 21105.0
32.627361300 20487.0
32.638227740 20479.0
32.649094180 19482.0
32.659960620 18886.0
32.670827060 18225.0
32.681693500 17557.0
32.692559940 16672.0
32.703426380 16451.0
32.714292820 15296.0
32.725159260 14889.0
32.736025700 14353.0
32.746892140 14016.0
32.757758580 13453.0
32.768625020 13010.0
32.779491460 12933.0
32.790357900 12707.0
32.801224340 12474.0
32.812090780 12596.0
32.822957220 12314.0
32.833823660 12586.0
32.844690100 12373.0
32.855556540 12292.0
32.866422980 12259.0
32.877289420 12299.0
32.888155860 12235.0
32.899022300 12296.0
32.909888740 12170.0
32.920755180 12336.0
32.931621620 12217.0
32.942488060 12291.0
32.953354500 12425.0
32.964220940 12171.0
32.975087380 12362.0
32.985953820 12544.0
32.996820260 12290.0
33.007686700 12423.0
33.018553140 12380.0
33.029419580 12467.0
33.040286020 12334.0
33.051152460 12735.0
33.062018900 12453.0
33.072885340 12381.0
33.083751780 12547.0
33.094618220 12793.0
33.105484660 12608.0
33.116351100 12561.0
33.127217540 12618.0
33.138083980 12690.0
33.148950420 12398.0
33.159816860 12663.0
33.170683300 12433.0
33.181549740 12535.0
33.192416180 12358.0
33.203282620 12474.0
33.214149060 12142.0
33.225015500 12613.0
33.235881940 12324.0
33.246748380 12198.0
33.257614820 12429.0
33.268481260 12352.0
33.279347700 12603.0
33.290214140 12364.0
33.301080580 12496.0
33.311947020 12269.0
33.322813460 12386.0
33.333679900 12415.0
33.344546340 12451.0
33.355412780 12669.0
33.366279220 12592.0
33.377145660 12759.0
33.388012100 12767.0
33.398878540 12819.0
33.409744980 12764.0
33.420611420 12994.0
33.431477860 13116.0
33.442344300 13442.0
33.453210740 13282.0
33.464077180 13575.0
33.474943620 13723.0
33.485810060 14078.0
33.496676500 14371.0
33.507542940 14912.0
33.518409380 15074.0
33.529275820 15631.0
33.540142260 15800.0
33.551008700 16666.0
33.561875140 17014.0
33.572741580 17383.0
33.583608020 17952.0
33.594474460 18593.0
33.605340900 19013.0
33.616207340 19563.0
33.627073780 19593.0
33.637940220 20145.0
33.648806660 20355.0
33.659673100 20773.0
33.670539540 21008.0
33.681405980 21204.0
33.692272420 21452.0
33.703138860 22408.0
33.714005300 22495.0
33.724871740 23446.0
33.735738180 23907.0
33.746604620 24984.0
33.757471060 25682.0
33.768337500 26588.0
33.779203940 26928.0
33.790070380 27841.0
33.800936820 28450.0
33.811803260 29222.0
33.822669700 29503.0
33.833536140 29963.0
33.844402580 29839.0
33.855269020 29982.0
33.866135460 29505.0
33.877001900 29162.0
33.887868340 28931.0
33.898734780 28074.0
33.909601220 27279.0
33.920467660 26675.0
33.931334100 25189.0
33.942200540 24604.0
33.953066980 23629.0
33.963933420 22712.0
33.974799860 21824.0
33.985666300 20617.0
33.996532740 20274.0
34.007399180 19237.0
34.018265620 18405.0
34.029132060 17619.0
34.039998500 17204.0
34.050864940 16540.0
34.061731380 16050.0
34.072597820 15971.0
34.083464260 15357.0
34.094330700 14958.0
34.105197140 14730.0
34.116063580 14463.0
34.126930020 13868.0
34.137796460 14087.0
34.148662900 13581.0
34.159529340 13563.0
34.170395780 13347.0
34.181262220 13433.0
34.192128660 13245.0
34.202995100 13078.0
34.213861540 12988.0
34.224727980 12830.0
34.235594420 12796.0
34.246460860 12519.0
34.257327300 12417.0
34.268193740 12454.0
34.279060180 12298.0
34.289926620 12365.0
34.300793060 12089.0
34.311659500 12274.0
34.322525940 12170.0
34.333392380 12066.0
34.344258820 11889.0
34.355125260 12105.0
34.365991700 11778.0
34.376858140 12073.0
34.387724580 12101.0
34.398591020 12137.0
34.409457460 12069.0
34.420323900 12368.0
34.431190340 12265.0
34.442056780 12242.0
34.452923220 12286.0
34.463789660 12451.0
34.474656100 12413.0
34.485522540 12472.0
34.496388980 12641.0
34.507255420 12845.0
34.518121860 13238.0
34.528988300 13060.0
34.539854740 13354.0
34.550721180 13512.0
34.561587620 13510.0
34.572454060 13378.0
34.583320500 13361.0
34.594186940 13000.0
34.605053380 13241.0
34.615919820 13107.0
34.626786260 12900.0
34.637652700 12777.0
34.648519140 12692.0
34.659385580 12488.0
34.670252020 12313.0
34.681118460 12048.0
34.691984900 11854.0
34.702851340 11787.0
34.713717780 11510.0
34.724584220 11643.0
34.735450660 11234.0
34.746317100 11304.0
34.757183540 10883.0
34.768049980 10916.0
34.778916420 10957.0
34.789782860 11111.0
34.800649300 10702.0
34.811515740 11016.0
34.822382180 10738.0
34.833248620 10947.0
34.844115060 10806.0
34.854981500 10845.0
34.865847940 10631.0
34.876714380 10963.0
34.887580820 10657.0
34.898447260 10731.0
34.909313700 10593.0
34.920180140 10812.0
34.931046580 10769.0
34.941913020 10744.0
34.952779460 10697.0
34.963645900 10671.0
34.974512340 10525.0
34.985378780 10800.0
34.996245220 10551.0
35.007111660 10747.0
35.017978100 10525.0
35.028844540 10644.0
35.039710980 10508.0
35.050577420 10722.0
35.061443860 10418.0
35.072310300 10649.0
35.083176740 10463.0
35.094043180 10388.0
35.104909620 10793.0
35.115776060 10509.0
35.126642500 10515.0
35.137508940 10433.0
35.148375380 10381.0
35.159241820 10565.0
35.170108260 10464.0
35.180974700 10389.0
35.191841140 10644.0
35.202707580 10399.0
35.213574020 10448.0
35.224440460 10347.0
35.235306900 10561.0
35.246173340 10469.0
35.257039780 10463.0
35.267906220 10348.0
35.278772660 10482.0
35.289639100 10251.0
35.300505540 10501.0
35.311371980 10357.0
35.322238420 10457.0
35.333104860 10406.0
35.343971300 10516.0
35.354837740 10617.0
35.365704180 10246.0
35.376570620 10575.0
35.387437060 10516.0
35.398303500 10391.0
35.409169940 10658.0
35.420036380 10517.0
35.430902820 10631.0
35.441769260 10466.0
35.452635700 10346.0
35.463502140 10648.0
35.474368580 10693.0
35.485235020 10626.0
35.496101460 10689.0
35.506967900 10731.0
35.517834340 10808.0
35.528700780 10895.0
35.539567220 10830.0
35.550433660 11161.0
35.561300100 11009.0
35.572166540 11322.0
35.583032980 11371.0
35.593899420 11698.0
35.604765860 12126.0
35.615632300 12323.0
35.626498740 12762.0
35.637365180 13078.0
35.648231620 13320.0
35.659098060 14056.0
35.669964500 14682.0
35.680830940 15326.0
35.691697380 15927.0
35.702563820 16867.0
35.713430260 17178.0
35.724296700 17804.0
35.735163140 18220.0
35.746029580 18863.0
35.756896020 19091.0
35.767762460 19690.0
35.778628900 19418.0
35.789495340 19599.0
35.800361780 19199.0
35.811228220 19233.0
35.822094660 18843.0
35.832961100 18411.0
35.843827540 17901.0
35.854693980 17471.0
35.865560420 16829.0
35.876426860 16656.0
35.887293300 16061.0
35.898159740 15755.0
35.909026180 15197.0
35.919892620 14826.0
35.930759060 14437.0
35.941625500 14251.0
35.952491940 13714.0
35.963358380 13250.0
35.974224820 12898.0
35.985091260 12538.0
35.995957700 12285.0
36.006824140 11966.0
36.017690580 11617.0
36.028557020 11560.0
36.039423460 11029.0
36.050289900 11031.0
36.061156340 10785.0
36.072022780 11017.0
36.082889220 10419.0
36.093755660 10609.0
36.104622100 10521.0
36.115488540 10388.0
36.126354980 10240.0
36.137221420 10263.0
36.148087860 10025.0
36.158954300 10163.0
36.169820740 9983.0
36.180687180 10009.0
36.191553620 9885.0
36.202420060 10105.0
36.213286500 9811.0
36.224152940 9906.0
36.235019380 9820.0
36.245885820 9743.0
36.256752260 9678.0
36.267618700 9743.0
36.278485140 9782.0
36.289351580 9850.0
36.300218020 9851.0
36.311084460 9892.0
36.321950900 9677.0
36.332817340 9944.0
36.343683780 9872.0
36.354550220 10011.0
36.365416660 9790.0
36.376283100 9737.0
36.387149540 9578.0
36.398015980 9912.0
36.408882420 9748.0
36.419748860 9631.0
36.430615300 9628.0
36.441481740 9742.0
36.452348180 9480.0
36.463214620 9742.0
36.474081060 9729.0
36.484947500 9885.0
36.495813940 9729.0
36.506680380 9840.0
36.517546820 9825.0
36.528413260 9965.0
36.539279700 9795.0
36.550146140 9908.0
36.561012580 9776.0
36.571879020 9751.0
36.582745460 9816.0
36.593611900 9896.0
36.604478340 9711.0
36.615344780 9844.0
36.626211220 9808.0
36.637077660 9747.0
36.647944100 9707.0
36.658810540 9872.0
36.669676980 9801.0
36.680543420 9801.0
36.691409860 9670.0
36.702276300 9771.0
36.713142740 9606.0
36.724009180 9573.0
36.734875620 9662.0
36.745742060 9732.0
36.756608500 9734.0
36.767474940 9662.0
36.778341380 9684.0
36.789207820 9733.0
36.800074260 9810.0
36.810940700 9631.0
36.821807140 9659.0
36.832673580 9881.0
36.843540020 9623.0
36.854406460 9652.0
36.865272900 9798.0
36.876139340 9662.0
36.887005780 9723.0
36.897872220 9579.0
36.908738660 9700.0
36.919605100 9693.0
36.930471540 9636.0
36.941337980 9808.0
36.952204420 9673.0
36.963070860 9773.0
36.973937300 9720.0
36.984803740 9779.0
36.995670180 9692.0
37.006536620 9847.0
37.017403060 9578.0
37.028269500 9776.0
37.039135940 9655.0
37.050002380 9953.0
37.060868820 9964.0
37.071735260 9800.0
37.082601700 9917.0
37.093468140 10018.0
37.104334580 10147.0
37.115201020 10158.0
37.126067460 9839.0
37.136933900 10220.0
37.147800340 10211.0
37.158666780 10431.0
37.169533220 10562.0
37.180399660 10791.0
37.191266100 10629.0
37.202132540 10894.0
37.212998980 11165.0
37.223865420 11342.0
37.234731860 11450.0
37.245598300 11662.0
37.256464740 11780.0
37.267331180 11930.0
37.278197620 11881.0
37.289064060 11975.0
37.299930500 11823.0
37.310796940 11865.0
37.321663380 12009.0
37.332529820 12059.0
37.343396260 11626.0
37.354262700 11829.0
37.365129140 11290.0
37.375995580 11534.0
37.386862020 11320.0
37.397728460 10998.0
37.408594900 10973.0
37.419461340 11211.0
37.430327780 11112.0
37.441194220 10792.0
37.452060660 10925.0
37.462927100 10878.0
37.473793540 10905.0
37.484659980 10893.0
37.495526420 10687.0
37.506392860 11044.0
37.517259300 11176.0
37.528125740 11230.0
37.538992180 11316.0
37.549858620 11616.0
37.560725060 11786.0
37.571591500 12008.0
37.582457940 12160.0
37.593324380 12334.0
37.604190820 12746.0
37.615057260 13096.0
37.625923700 13690.0
37.636790140 14183.0
37.647656580 14525.0
37.658523020 15302.0
37.669389460 16086.0
37.680255900 16843.0
37.691122340 17876.0
37.701988780 18882.0
37.712855220 20118.0
37.723721660 21295.0
37.734588100 23340.0
37.745454540 24735.0
37.756320980 26214.0
37.767187420 28324.0
37.778053860 30442.0
37.788920300 31894.0
37.799786740 33641.0
37.810653180 35410.0
37.821519620 36763.0
37.832386060 38454.0
37.843252500 39200.0
37.854118940 39664.0
37.864985380 40322.0
37.875851820 40183.0
37.886718260 40559.0
37.897584700 39819.0
37.908451140 39096.0
37.919317580 38344.0
37.930184020 37132.0
37.941050460 35977.0
37.951916900 34388.0
37.962783340 33282.0
37.973649780 31460.0
37.984516220 30164.0
37.995382660 28720.0
38.006249100 26867.0
38.017115540 25550.0
38.027981980 24274.0
38.038848420 22723.0
38.049714860 21542.0
38.060581300 20300.0
38.071447740 19423.0
38.082314180 18342.0
38.093180620 17653.0
38.104047060 16708.0
38.114913500 16266.0
38.125779940 15397.0
38.136646380 15017.0
38.147512820 14249.0
38.158379260 13993.0
38.169245700 13420.0
38.180112140 13090.0
38.190978580 12723.0
38.201845020 12126.0
38.212711460 12101.0
38.223577900 11673.0
38.234444340 11517.0
38.245310780 11434.0
38.256177220 11007.0
38.267043660 10779.0
38.277910100 10612.0
38.288776540 10673.0
38.299642980 10248.0
38.310509420 10312.0
38.321375860 10041.0
38.332242300 9911.0
38.343108740 9838.0
38.353975180 9668.0
38.364841620 9708.0
38.375708060 9367.0
38.386574500 9700.0
38.397440940 9733.0
38.408307380 9358.0
38.419173820 9301.0
38.430040260 9152.0
38.440906700 9303.0
38.451773140 9117.0
38.462639580 9168.0
38.473506020 9077.0
38.484372460 9256.0
38.495238900 8981.0
38.506105340 9118.0
38.516971780 9133.0
38.527838220 8952.0
38.538704660 8933.0
38.549571100 9154.0
38.560437540 8894.0
38.571303980 8814.0
38.582170420 8892.0
38.593036860 8834.0
38.603903300 8888.0
38.614769740 8790.0
38.625636180 8741.0
38.636502620 9046.0
38.647369060 8901.0
38.658235500 8857.0
38.669101940 8801.0
38.679968380 8988.0
38.690834820 8834.0
38.701701260 8855.0
38.712567700 8963.0
38.723434140 8896.0
38.734300580 9057.0
38.745167020 8748.0
38.756033460 8884.0
38.766899900 8852.0
38.777766340 9003.0
38.788632780 8918.0
38.799499220 9015.0
38.810365660 9080.0
38.821232100 9004.0
38.832098540 9188.0
38.842964980 9005.0
38.853831420 9079.0
38.864697860 9225.0
38.875564300 9226.0
38.886430740 9010.0
38.897297180 9283.0
38.908163620 9062.0
38.919030060 9371.0
38.929896500 9202.0
38.940762940 9327.0
38.951629380 9084.0
38.962495820 9128.0
38.973362260 9125.0
38.984228700 9407.0
38.995095140 9156.0
39.005961580 9319.0
39.016828020 9026.0
39.027694460 9244.0
39.038560900 8977.0
39.049427340 8973.0
39.060293780 9186.0
39.071160220 8842.0
39.082026660 8954.0
39.092893100 8939.0
39.103759540 8894.0
39.114625980 8613.0
39.125492420 8667.0
39.136358860 8668.0
39.147225300 8770.0
39.158091740 8693.0
39.168958180 8673.0
39.179824620 8778.0
39.190691060 8737.0
39.201557500 8622.0
39.212423940 8682.0
39.223290380 8591.0
39.234156820 8524.0
39.245023260 8524.0
39.255889700 8474.0
39.266756140 8668.0
39.277622580 8430.0
39.288489020 8542.0
39.299355460 8417.0
39.310221900 8595.0
39.321088340 8407.0
39.331954780 8565.0
39.342821220 8417.0
39.353687660 8451.0
39.364554100 8369.0
39.375420540 8431.0
39.386286980 8258.0
39.397153420 8530.0
39.408019860 8426.0
39.418886300 8438.0
39.429752740 8625.0
39.440619180 8412.0
39.451485620 8430.0
39.462352060 8558.0
39.473218500 8468.0
39.484084940 8461.0
39.494951380 8335.0
39.505817820 8381.0
39.516684260 8249.0
39.527550700 8542.0
39.538417140 8568.0
39.549283580 8480.0
39.560150020 8430.0
39.571016460 8541.0
39.581882900 8580.0
39.592749340 8675.0
39.603615780 8507.0
39.614482220 8759.0
39.625348660 8842.0
39.636215100 8833.0
39.647081540 8800.0
39.657947980 8991.0
39.668814420 9006.0
39.679680860 9234.0
39.690547300 9491.0
39.701413740 9350.0
39.712280180 9702.0
39.723146620 9626.0
39.734013060 10210.0
39.744879500 10192.0
39.755745940 10470.0
39.766612380 10603.0
39.777478820 10911.0
39.788345260 11201.0
39.799211700 11060.0
39.810078140 11435.0
39.820944580 11437.0
39.831811020 11701.0
39.842677460 11492.0
39.853543900 11479.0
39.864410340 11319.0
39.875276780 11145.0
39.886143220 11203.0
39.897009660 10975.0
39.907876100 10631.0
39.918742540 10461.0
39.929608980 10179.0
39.940475420 10215.0
39.951341860 9844.0
39.962208300 9864.0
39.973074740 9295.0
39.983941180 9796.0
39.994807620 9113.0
