10.003433220 22032.0
10.014299660 21829.0
10.025166100 21861.0
10.036032540 21858.0
10.046898980 21894.0
10.057765420 21961.0
10.068631860 21987.0
10.079498300 21542.0
10.090364740 21812.0
10.101231180 21738.0
10.112097620 21496.0
10.122964060 21801.0
10.133830500 21778.0
10.144696940 21756.0
10.155563380 21861.0
10.166429820 21506.0
10.177296260 21507.0
10.188162700 21613.0
10.199029140 21853.0
10.209895580 21317.0
10.220762020 21806.0
10.231628460 21446.0
10.242494900 21423.0
10.253361340 21612.0
10.264227780 21850.0
10.275094220 21312.0
10.285960660 21684.0
10.296827100 21392.0
10.307693540 21335.0
10.318559980 21246.0
10.329426420 21531.0
10.340292860 21507.0
10.351159300 21915.0
10.362025740 21766.0
10.372892180 21604.0
10.383758620 21413.0
10.394625060 21352.0
10.405491500 21653.0
10.416357940 21469.0
10.427224380 21436.0
10.438090820 21365.0
10.448957260 21456.0
10.459823700 21460.0
10.470690140 21478.0
10.481556580 21320.0
10.492423020 21266.0
10.503289460 21257.0
10.514155900 21169.0
10.525022340 21463.0
10.535888780 21344.0
10.546755220 21537.0
10.557621660 21280.0
10.568488100 21307.0
10.579354540 21164.0
10.590220980 21272.0
10.601087420 21182.0
10.611953860 21438.0
10.622820300 21238.0
10.633686740 21345.0
10.644553180 21335.0
10.655419620 21324.0
10.666286060 21338.0
10.677152500 21064.0
10.688018940 20955.0
10.698885380 21016.0
10.709751820 21374.0
10.720618260 21512.0
10.731484700 21121.0
10.742351140 21163.0
10.753217580 21124.0
10.764084020 21129.0
10.774950460 21351.0
10.785816900 21042.0
10.796683340 21129.0
10.807549780 21064.0
10.818416220 21224.0
10.829282660 20847.0
10.840149100 21185.0
10.851015540 21231.0
10.861881980 20888.0
10.872748420 21188.0
10.883614860 21045.0
10.894481300 21136.0
10.905347740 21274.0
10.916214180 21098.0
10.927080620 21071.0
10.937947060 21360.0
10.948813500 21528.0
10.959679940 21375.0
10.970546380 21182.0
10.981412820 21357.0
10.992279260 20967.0
11.003145700 21187.0
11.014012140 21210.0
11.024878580 21498.0
11.035745020 21395.0
11.046611460 21269.0
11.057477900 21367.0
11.068344340 21278.0
11.079210780 21214.0
11.090077220 21282.0
11.100943660 21630.0
11.111810100 21412.0
11.122676540 21415.0
11.133542980 21826.0
11.144409420 21630.0
11.155275860 22078.0
11.166142300 21674.0
11.177008740 21760.0
11.187875180 21571.0
11.198741620 21805.0
11.209608060 21864.0
11.220474500 22180.0
11.231340940 22125.0
11.242207380 22253.0
11.253073820 22447.0
11.263940260 22442.0
11.274806700 22649.0
11.285673140 22893.0
11.296539580 23100.0
11.307406020 23273.0
11.318272460 23485.0
11.329138900 23517.0
11.340005340 23849.0
11.350871780 23711.0
11.361738220 23606.0
11.372604660 23904.0
11.383471100 23418.0
11.394337540 23844.0
11.405203980 23532.0
11.416070420 23932.0
11.426936860 23874.0
11.437803300 23826.0
11.448669740 23215.0
11.459536180 23191.0
11.470402620 23130.0
11.481269060 23071.0
11.492135500 22271.0
11.503001940 22223.0
11.513868380 21770.0
11.524734820 21596.0
11.535601260 21083.0
11.546467700 20881.0
11.557334140 20875.0
11.568200580 20998.0
11.579067020 20826.0
11.589933460 20797.0
11.600799900 20653.0
11.611666340 20501.0
11.622532780 20652.0
11.633399220 20628.0
11.644265660 20561.0
11.655132100 20609.0
11.665998540 20271.0
11.676864980 20576.0
11.687731420 20422.0
11.698597860 20397.0
11.709464300 20510.0
11.720330740 20485.0
11.731197180 20294.0
11.742063620 20532.0
11.752930060 20509.0
11.763796500 20498.0
11.774662940 20219.0
11.785529380 20461.0
11.796395820 20338.0
11.807262260 20324.0
11.818128700 20065.0
11.828995140 20514.0
11.839861580 20497.0
11.850728020 20340.0
11.861594460 20474.0
11.872460900 20186.0
11.883327340 20059.0
11.894193780 20575.0
11.905060220 20425.0
11.915926660 20484.0
11.926793100 20373.0
11.937659540 20219.0
11.948525980 20294.0
11.959392420 20146.0
11.970258860 20330.0
11.981125300 20098.0
11.991991740 19867.0
12.002858180 19922.0
12.013724620 20199.0
12.024591060 20159.0
12.035457500 19886.0
12.046323940 20131.0
12.057190380 20122.0
12.068056820 20028.0
12.078923260 20331.0
12.089789700 20361.0
12.100656140 20192.0
12.111522580 20080.0
12.122389020 19881.0
12.133255460 20324.0
12.144121900 20178.0
12.154988340 20229.0
12.165854780 20290.0
12.176721220 20146.0
12.187587660 19972.0
12.198454100 20105.0
12.209320540 20050.0
12.220186980 19978.0
12.231053420 20148.0
12.241919860 20296.0
12.252786300 19687.0
12.263652740 19800.0
12.274519180 19889.0
12.285385620 20194.0
12.296252060 19930.0
12.307118500 20052.0
12.317984940 19772.0
12.328851380 20066.0
12.339717820 19993.0
12.350584260 19713.0
12.361450700 19869.0
12.372317140 20142.0
12.383183580 20037.0
12.394050020 19739.0
12.404916460 19843.0
12.415782900 20036.0
12.426649340 19716.0
12.437515780 20111.0
12.448382220 19771.0
12.459248660 19808.0
12.470115100 19852.0
12.480981540 19736.0
12.491847980 19312.0
12.502714420 19833.0
12.513580860 19678.0
12.524447300 19772.0
12.535313740 19736.0
12.546180180 19932.0
12.557046620 19588.0
12.567913060 19873.0
12.578779500 19749.0
12.589645940 19680.0
12.600512380 19774.0
12.611378820 19688.0
12.622245260 19746.0
12.633111700 19946.0
12.643978140 19429.0
12.654844580 19811.0
12.665711020 19537.0
12.676577460 19746.0
12.687443900 19500.0
12.698310340 19934.0
12.709176780 19507.0
12.720043220 19718.0
12.730909660 19595.0
12.741776100 19473.0
12.752642540 19587.0
12.763508980 19757.0
12.774375420 19648.0
12.785241860 19691.0
12.796108300 19826.0
12.806974740 19474.0
12.817841180 19568.0
12.828707620 19760.0
12.839574060 19424.0
12.850440500 19835.0
12.861306940 19748.0
12.872173380 19443.0
12.883039820 19772.0
12.893906260 19653.0
12.904772700 19592.0
12.915639140 19405.0
12.926505580 19571.0
12.937372020 19652.0
12.948238460 19468.0
12.959104900 19381.0
12.969971340 19240.0
12.980837780 19463.0
12.991704220 19495.0
13.002570660 19467.0
13.013437100 19426.0
13.024303540 19386.0
13.035169980 19284.0
13.046036420 19414.0
13.056902860 19185.0
13.067769300 19496.0
13.078635740 19512.0
13.089502180 19674.0
13.100368620 18969.0
13.111235060 19450.0
13.122101500 18993.0
13.132967940 19389.0
13.143834380 19248.0
13.154700820 19174.0
13.165567260 19340.0
13.176433700 19259.0
13.187300140 19120.0
13.198166580 19250.0
13.209033020 19399.0
13.219899460 19318.0
13.230765900 19365.0
13.241632340 19261.0
13.252498780 19417.0
13.263365220 19395.0
13.274231660 19142.0
13.285098100 19319.0
13.295964540 19062.0
13.306830980 19157.0
13.317697420 19304.0
13.328563860 19073.0
13.339430300 19419.0
13.350296740 19280.0
13.361163180 19000.0
13.372029620 19275.0
13.382896060 19024.0
13.393762500 19048.0
13.404628940 18821.0
13.415495380 19010.0
13.426361820 18900.0
13.437228260 19223.0
13.448094700 18751.0
13.458961140 18799.0
13.469827580 18933.0
13.480694020 19040.0
13.491560460 19037.0
13.502426900 19288.0
13.513293340 18684.0
13.524159780 19167.0
13.535026220 18798.0
13.545892660 19355.0
13.556759100 18842.0
13.567625540 19126.0
13.578491980 19151.0
13.589358420 19116.0
13.600224860 18850.0
13.611091300 19141.0
13.621957740 19104.0
13.632824180 19290.0
13.643690620 18916.0
13.654557060 19140.0
13.665423500 19191.0
13.676289940 18977.0
13.687156380 18802.0
13.698022820 19040.0
13.708889260 18934.0
13.719755700 19032.0
13.730622140 18891.0
13.741488580 19082.0
13.752355020 19035.0
13.763221460 19034.0
13.774087900 19142.0
13.784954340 18844.0
13.795820780 19198.0
13.806687220 19036.0
13.817553660 18652.0
13.828420100 18765.0
13.839286540 19105.0
13.850152980 18837.0
13.861019420 18889.0
13.871885860 18654.0
13.882752300 18864.0
13.893618740 18618.0
13.904485180 18877.0
13.915351620 18856.0
13.926218060 18706.0
13.937084500 18721.0
13.947950940 18763.0
13.958817380 18753.0
13.969683820 18924.0
13.980550260 18730.0
13.991416700 18550.0
14.002283140 18429.0
14.013149580 18847.0
14.024016020 18751.0
14.034882460 18623.0
14.045748900 18599.0
14.056615340 18631.0
14.067481780 18728.0
14.078348220 18731.0
14.089214660 18731.0
14.100081100 18678.0
14.110947540 18618.0
14.121813980 18541.0
14.132680420 18557.0
14.143546860 18603.0
14.154413300 18901.0
14.165279740 18652.0
14.176146180 18602.0
14.187012620 18333.0
14.197879060 18439.0
14.208745500 18663.0
14.219611940 18716.0
14.230478380 18505.0
14.241344820 18630.0
14.252211260 18703.0
14.263077700 18581.0
14.273944140 18497.0
14.284810580 18520.0
14.295677020 18788.0
14.306543460 18602.0
14.317409900 18598.0
14.328276340 18585.0
14.339142780 18611.0
14.350009220 18565.0
14.360875660 18492.0
14.371742100 18454.0
14.382608540 18386.0
14.393474980 18681.0
14.404341420 18695.0
14.415207860 18628.0
14.426074300 18608.0
14.436940740 18506.0
14.447807180 18555.0
14.458673620 18694.0
14.469540060 18454.0
14.480406500 18178.0
14.491272940 18300.0
14.502139380 18476.0
14.513005820 18182.0
14.523872260 18313.0
14.534738700 18656.0
14.545605140 18359.0
14.556471580 18236.0
14.567338020 18392.0
14.578204460 18306.0
14.589070900 18430.0
14.599937340 18383.0
14.610803780 18408.0
14.621670220 18131.0
14.632536660 18524.0
14.643403100 18357.0
14.654269540 18393.0
14.665135980 18359.0
14.676002420 18476.0
14.686868860 18352.0
14.697735300 18316.0
14.708601740 18247.0
14.719468180 18030.0
14.730334620 18280.0
14.741201060 18217.0
14.752067500 18228.0
14.762933940 18436.0
14.773800380 18297.0
14.784666820 18189.0
14.795533260 18040.0
14.806399700 18334.0
14.817266140 18128.0
14.828132580 18384.0
14.838999020 18205.0
14.849865460 18352.0
14.860731900 18307.0
14.871598340 18288.0
14.882464780 18227.0
14.893331220 18184.0
14.904197660 18338.0
14.915064100 18362.0
14.925930540 18221.0
14.936796980 18080.0
14.947663420 18161.0
14.958529860 18186.0
14.969396300 18239.0
14.980262740 18281.0
14.991129180 18319.0
15.001995620 18220.0
15.012862060 18112.0
15.023728500 18230.0
15.034594940 18097.0
15.045461380 18170.0
15.056327820 18064.0
15.067194260 18198.0
15.078060700 18075.0
15.088927140 18069.0
15.099793580 17935.0
15.110660020 17975.0
15.121526460 18215.0
15.132392900 17914.0
15.143259340 17897.0
15.154125780 18233.0
15.164992220 17870.0
15.175858660 18135.0
15.186725100 17846.0
15.197591540 18024.0
15.208457980 18100.0
15.219324420 17899.0
15.230190860 17955.0
15.241057300 17889.0
15.251923740 18115.0
15.262790180 18049.0
15.273656620 18050.0
15.284523060 18089.0
15.295389500 17835.0
15.306255940 18125.0
15.317122380 18152.0
15.327988820 18079.0
15.338855260 18124.0
15.349721700 17900.0
15.360588140 17815.0
15.371454580 18183.0
15.382321020 17897.0
15.393187460 17799.0
15.404053900 17860.0
15.414920340 17880.0
15.425786780 18183.0
15.436653220 18273.0
15.447519660 18139.0
15.458386100 18260.0
15.469252540 17978.0
15.480118980 18200.0
15.490985420 18181.0
15.501851860 18427.0
15.512718300 18012.0
15.523584740 18316.0
15.534451180 18244.0
15.545317620 18182.0
15.556184060 18339.0
15.567050500 18128.0
15.577916940 18287.0
15.588783380 18519.0
15.599649820 18466.0
15.610516260 18917.0
15.621382700 18580.0
15.632249140 18817.0
15.643115580 18505.0
15.653982020 18898.0
15.664848460 18816.0
15.675714900 19069.0
15.686581340 18941.0
15.697447780 19274.0
15.708314220 19678.0
15.719180660 19915.0
15.730047100 19799.0
15.740913540 20147.0
15.751779980 20090.0
15.762646420 20670.0
15.773512860 20935.0
15.784379300 21318.0
15.795245740 21880.0
15.806112180 22338.0
15.816978620 22609.0
15.827845060 23159.0
15.838711500 23351.0
15.849577940 24418.0
15.860444380 24700.0
15.871310820 25579.0
15.882177260 25768.0
15.893043700 26554.0
15.903910140 27212.0
15.914776580 28083.0
15.925643020 28644.0
15.936509460 29127.0
15.947375900 29531.0
15.958242340 29658.0
15.969108780 30053.0
15.979975220 30139.0
15.990841660 29755.0
16.001708100 29671.0
16.012574540 29402.0
16.023440980 29147.0
16.034307420 28603.0
16.045173860 27978.0
16.056040300 27030.0
16.066906740 26358.0
16.077773180 25389.0
16.088639620 24517.0
16.099506060 24021.0
16.110372500 23010.0
16.121238940 22490.0
16.132105380 21784.0
16.142971820 21442.0
16.153838260 21002.0
16.164704700 20185.0
16.175571140 20163.0
16.186437580 19550.0
16.197304020 19717.0
16.208170460 18830.0
16.219036900 18697.0
16.229903340 18231.0
16.240769780 18606.0
16.251636220 18244.0
16.262502660 18250.0
16.273369100 17790.0
16.284235540 17940.0
16.295101980 17670.0
16.305968420 17772.0
16.316834860 17604.0
16.327701300 17742.0
16.338567740 17857.0
16.349434180 17399.0
16.360300620 17673.0
16.371167060 17768.0
16.382033500 17227.0
16.392899940 17478.0
16.403766380 17437.0
16.414632820 17568.0
16.425499260 17639.0
16.436365700 17440.0
16.447232140 17291.0
16.458098580 17230.0
16.468965020 17452.0
16.479831460 17267.0
16.490697900 17372.0
16.501564340 17328.0
16.512430780 17384.0
16.523297220 17340.0
16.534163660 17158.0
16.545030100 17484.0
16.555896540 17124.0
16.566762980 17315.0
16.577629420 17261.0
16.588495860 17103.0
16.599362300 17547.0
16.610228740 17481.0
16.621095180 17193.0
16.631961620 17578.0
16.642828060 17368.0
16.653694500 17432.0
16.664560940 17184.0
16.675427380 17291.0
16.686293820 17206.0
16.697160260 17364.0
16.708026700 17183.0
16.718893140 17098.0
16.729759580 17070.0
16.740626020 17177.0
16.751492460 17373.0
16.762358900 17196.0
16.773225340 17142.0
16.784091780 17128.0
16.794958220 17120.0
16.805824660 17285.0
16.816691100 17164.0
16.827557540 17364.0
16.838423980 17056.0
16.849290420 17031.0
16.860156860 17125.0
16.871023300 17126.0
16.881889740 17015.0
16.892756180 17170.0
16.903622620 16963.0
16.914489060 16971.0
16.925355500 17157.0
16.936221940 17133.0
16.947088380 17109.0
16.957954820 17158.0
16.968821260 17244.0
16.979687700 17102.0
16.990554140 17047.0
17.001420580 16942.0
17.012287020 17107.0
17.023153460 16993.0
17.034019900 17166.0
17.044886340 17078.0
17.055752780 16921.0
17.066619220 17131.0
17.077485660 17109.0
17.088352100 17052.0
17.099218540 16696.0
17.110084980 17256.0
17.120951420 16893.0
17.131817860 17201.0
17.142684300 17130.0
17.153550740 17159.0
17.164417180 16968.0
17.175283620 17058.0
17.186150060 17060.0
17.197016500 17413.0
17.207882940 17142.0
17.218749380 17285.0
17.229615820 17180.0
17.240482260 16948.0
17.251348700 17241.0
17.262215140 17156.0
17.273081580 17080.0
17.283948020 17269.0
17.294814460 17039.0
17.305680900 17288.0
17.316547340 17218.0
17.327413780 17367.0
17.338280220 17151.0
17.349146660 17213.0
17.360013100 17353.0
17.370879540 17428.0
17.381745980 17446.0
17.392612420 17273.0
17.403478860 17502.0
17.414345300 17548.0
17.425211740 17465.0
17.436078180 17600.0
17.446944620 17563.0
17.457811060 17535.0
17.468677500 17580.0
17.479543940 17530.0
17.490410380 17481.0
17.501276820 17974.0
17.512143260 17540.0
17.523009700 18312.0
17.533876140 17888.0
17.544742580 18010.0
17.555609020 18162.0
17.566475460 18622.0
17.577341900 18753.0
17.588208340 18858.0
17.599074780 19016.0
17.609941220 19101.0
17.620807660 19255.0
17.631674100 19702.0
17.642540540 20157.0
17.653406980 20540.0
17.664273420 20868.0
17.675139860 21530.0
17.686006300 22213.0
17.696872740 22857.0
17.707739180 23708.0
17.718605620 24799.0
17.729472060 25806.0
17.740338500 26564.0
17.751204940 27789.0
17.762071380 28769.0
17.772937820 29717.0
17.783804260 31205.0
17.794670700 32699.0
17.805537140 33787.0
17.816403580 34653.0
17.827270020 35761.0
17.838136460 36224.0
17.849002900 37323.0
17.859869340 37319.0
17.870735780 38035.0
17.881602220 37644.0
17.892468660 37805.0
17.903335100 36501.0
17.914201540 35872.0
17.925067980 34697.0
17.935934420 33484.0
17.946800860 31941.0
17.957667300 30020.0
17.968533740 28682.0
17.979400180 26577.0
17.990266620 25227.0
18.001133060 23903.0
18.011999500 22317.0
18.022865940 21516.0
18.033732380 20113.0
18.044598820 19611.0
18.055465260 19142.0
18.066331700 18725.0
18.077198140 18442.0
18.088064580 18384.0
18.098931020 17652.0
18.109797460 17287.0
18.120663900 17505.0
18.131530340 17493.0
18.142396780 17232.0
18.153263220 17526.0
18.164129660 17097.0
18.174996100 16973.0
18.185862540 17116.0
18.196728980 16878.0
18.207595420 17059.0
18.218461860 17212.0
18.229328300 17041.0
18.240194740 16974.0
18.251061180 16938.0
18.261927620 16985.0
18.272794060 16779.0
18.283660500 16757.0
18.294526940 16626.0
18.305393380 16853.0
18.316259820 16590.0
18.327126260 16770.0
18.337992700 16663.0
18.348859140 16744.0
18.359725580 16604.0
18.370592020 16760.0
18.381458460 16670.0
18.392324900 16718.0
18.403191340 16699.0
18.414057780 16982.0
18.424924220 16567.0
18.435790660 16772.0
18.446657100 16838.0
18.457523540 16641.0
18.468389980 16734.0
18.479256420 16722.0
18.490122860 16642.0
18.500989300 16711.0
18.511855740 16290.0
18.522722180 16473.0
18.533588620 16333.0
18.544455060 16575.0
18.555321500 16232.0
18.566187940 16554.0
18.577054380 16516.0
18.587920820 16504.0
18.598787260 16340.0
18.609653700 16574.0
18.620520140 16583.0
18.631386580 16674.0
18.642253020 16506.0
18.653119460 16722.0
18.663985900 16752.0
18.674852340 16515.0
18.685718780 16562.0
18.696585220 16639.0
18.707451660 16516.0
18.718318100 16326.0
18.729184540 16334.0
18.740050980 16539.0
18.750917420 16633.0
18.761783860 16431.0
18.772650300 16587.0
18.783516740 16487.0
18.794383180 16533.0
18.805249620 16122.0
18.816116060 16519.0
18.826982500 16486.0
18.837848940 16417.0
18.848715380 16479.0
18.859581820 16317.0
18.870448260 16406.0
18.881314700 16552.0
18.892181140 16367.0
18.903047580 16502.0
18.913914020 16368.0
18.924780460 16591.0
18.935646900 16390.0
18.946513340 16541.0
18.957379780 16563.0
18.968246220 16358.0
18.979112660 16438.0
18.989979100 16396.0
19.000845540 16445.0
19.011711980 16366.0
19.022578420 16507.0
19.033444860 16489.0
19.044311300 16349.0
19.055177740 16258.0
19.066044180 16398.0
19.076910620 16299.0
19.087777060 16369.0
19.098643500 16288.0
19.109509940 15974.0
19.120376380 16471.0
19.131242820 16505.0
19.142109260 15956.0
19.152975700 16463.0
19.163842140 16394.0
19.174708580 16532.0
19.185575020 15954.0
19.196441460 16223.0
19.207307900 16336.0
19.218174340 16256.0
19.229040780 16231.0
19.239907220 16503.0
19.250773660 16264.0
19.261640100 16237.0
19.272506540 16288.0
19.283372980 16056.0
19.294239420 16287.0
19.305105860 16348.0
19.315972300 16497.0
19.326838740 16464.0
19.337705180 16459.0
19.348571620 16355.0
19.359438060 16226.0
19.370304500 16256.0
19.381170940 16209.0
19.392037380 16027.0
19.402903820 16185.0
19.413770260 16150.0
19.424636700 16264.0
19.435503140 16214.0
19.446369580 16117.0
19.457236020 16271.0
19.468102460 16142.0
19.478968900 16123.0
19.489835340 16136.0
19.500701780 16407.0
19.511568220 16284.0
19.522434660 16220.0
19.533301100 16061.0
19.544167540 16054.0
19.555033980 16264.0
19.565900420 16264.0
19.576766860 16117.0
19.587633300 16237.0
19.598499740 15883.0
19.609366180 16336.0
19.620232620 16072.0
19.631099060 16282.0
19.641965500 16293.0
19.652831940 16235.0
19.663698380 16190.0
19.674564820 16451.0
19.685431260 15793.0
19.696297700 16315.0
19.707164140 16171.0
19.718030580 16121.0
19.728897020 16182.0
19.739763460 15973.0
19.750629900 16150.0
19.761496340 16054.0
19.772362780 16141.0
19.783229220 16370.0
19.794095660 16085.0
19.804962100 16202.0
19.815828540 16051.0
19.826694980 16299.0
19.837561420 16049.0
19.848427860 16228.0
19.859294300 16153.0
19.870160740 16275.0
19.881027180 15844.0
19.891893620 16219.0
19.902760060 15973.0
19.913626500 16177.0
19.924492940 16169.0
19.935359380 16005.0
19.946225820 15942.0
19.957092260 16189.0
19.967958700 16230.0
19.978825140 16221.0
19.989691580 15984.0
20.000558020 16025.0
20.011424460 15841.0
20.022290900 16285.0
20.033157340 16255.0
20.044023780 16133.0
20.054890220 16136.0
20.065756660 16097.0
20.076623100 16032.0
20.087489540 16240.0
20.098355980 15825.0
20.109222420 16176.0
20.120088860 15996.0
20.130955300 16029.0
20.141821740 16060.0
20.152688180 15976.0
20.163554620 16052.0
20.174421060 16006.0
20.185287500 15996.0
20.196153940 16324.0
20.207020380 16130.0
20.217886820 16305.0
20.228753260 16088.0
20.239619700 15836.0
20.250486140 16293.0
20.261352580 16000.0
20.272219020 15923.0
20.283085460 16118.0
20.293951900 16174.0
20.304818340 15723.0
20.315684780 16065.0
20.326551220 15999.0
20.337417660 16083.0
20.348284100 16185.0
20.359150540 16227.0
20.370016980 16202.0
20.380883420 16158.0
20.391749860 16341.0
20.402616300 16027.0
20.413482740 16086.0
20.424349180 16109.0
20.435215620 15989.0
20.446082060 16135.0
20.456948500 16110.0
20.467814940 16059.0
20.478681380 15803.0
20.489547820 16135.0
20.500414260 16010.0
20.511280700 16069.0
20.522147140 15695.0
20.533013580 16075.0
20.543880020 15982.0
20.554746460 15988.0
20.565612900 15901.0
20.576479340 15877.0
20.587345780 15986.0
20.598212220 15729.0
20.609078660 15923.0
20.619945100 15961.0
20.630811540 16060.0
20.641677980 16133.0
20.652544420 15910.0
20.663410860 16021.0
20.674277300 16049.0
20.685143740 15983.0
20.696010180 15942.0
20.706876620 15611.0
20.717743060 15825.0
20.728609500 15916.0
20.739475940 15934.0
20.750342380 15988.0
20.761208820 15970.0
20.772075260 15942.0
20.782941700 15586.0
20.793808140 15925.0
20.804674580 15695.0
20.815541020 15775.0
20.826407460 16006.0
20.837273900 15848.0
20.848140340 16104.0
20.859006780 15865.0
20.869873220 15937.0
20.880739660 15820.0
20.891606100 15843.0
20.902472540 16007.0
20.913338980 16031.0
20.924205420 15931.0
20.935071860 15905.0
20.945938300 16049.0
20.956804740 16193.0
20.967671180 15826.0
20.978537620 15931.0
20.989404060 15949.0
21.000270500 15829.0
21.011136940 15864.0
21.022003380 15892.0
21.032869820 15903.0
21.043736260 15764.0
21.054602700 15903.0
21.065469140 15799.0
21.076335580 16053.0
21.087202020 15950.0
21.098068460 15931.0
21.108934900 15776.0
21.119801340 15787.0
21.130667780 15875.0
21.141534220 15834.0
21.152400660 16005.0
21.163267100 16117.0
21.174133540 16073.0
21.184999980 15568.0
21.195866420 15686.0
21.206732860 15866.0
21.217599300 15802.0
21.228465740 15664.0
21.239332180 15591.0
21.250198620 15529.0
21.261065060 15896.0
21.271931500 15763.0
21.282797940 15776.0
21.293664380 15982.0
21.304530820 15836.0
21.315397260 15885.0
21.326263700 16053.0
21.337130140 16125.0
21.347996580 15740.0
21.358863020 15980.0
21.369729460 15865.0
21.380595900 15682.0
21.391462340 16076.0
21.402328780 15851.0
21.413195220 16024.0
21.424061660 15985.0
21.434928100 15813.0
21.445794540 15845.0
21.456660980 15792.0
21.467527420 15800.0
21.478393860 15871.0
21.489260300 15888.0
21.500126740 15799.0
21.510993180 15702.0
21.521859620 15767.0
21.532726060 15537.0
21.543592500 15806.0
21.554458940 15830.0
21.565325380 15979.0
21.576191820 15911.0
21.587058260 15838.0
21.597924700 15631.0
21.608791140 15838.0
21.619657580 15541.0
21.630524020 15779.0
21.641390460 15555.0
21.652256900 15873.0
21.663123340 15683.0
21.673989780 15781.0
21.684856220 15827.0
21.695722660 15906.0
21.706589100 15858.0
21.717455540 15905.0
21.728321980 15808.0
21.739188420 15845.0
21.750054860 16076.0
21.760921300 16106.0
21.771787740 15812.0
21.782654180 16042.0
21.793520620 16156.0
21.804387060 15714.0
21.815253500 15783.0
21.826119940 15662.0
21.836986380 15951.0
21.847852820 15730.0
21.858719260 15806.0
21.869585700 15908.0
21.880452140 15735.0
21.891318580 15961.0
21.902185020 15810.0
21.913051460 15787.0
21.923917900 15949.0
21.934784340 15998.0
21.945650780 15788.0
21.956517220 15870.0
21.967383660 16140.0
21.978250100 15797.0
21.989116540 15949.0
21.999982980 15905.0
22.010849420 15816.0
22.021715860 15735.0
22.032582300 15913.0
22.043448740 15955.0
22.054315180 16169.0
22.065181620 15878.0
22.076048060 16125.0
22.086914500 16002.0
22.097780940 15883.0
22.108647380 15800.0
22.119513820 16241.0
22.130380260 15829.0
22.141246700 15923.0
22.152113140 16128.0
22.162979580 15920.0
22.173846020 15891.0
22.184712460 15727.0
22.195578900 15922.0
22.206445340 15908.0
22.217311780 16163.0
22.228178220 15978.0
22.239044660 16030.0
22.249911100 15835.0
22.260777540 15821.0
22.271643980 16067.0
22.282510420 16116.0
22.293376860 16079.0
22.304243300 16055.0
22.315109740 16198.0
22.325976180 16383.0
22.336842620 16159.0
22.347709060 16201.0
22.358575500 16398.0
22.369441940 16063.0
22.380308380 16743.0
22.391174820 16643.0
22.402041260 16428.0
22.412907700 16584.0
22.423774140 16809.0
22.434640580 16980.0
22.445507020 17403.0
22.456373460 17476.0
22.467239900 18002.0
22.478106340 18093.0
22.488972780 18382.0
22.499839220 18878.0
22.510705660 19323.0
22.521572100 19906.0
22.532438540 20460.0
22.543304980 21074.0
22.554171420 21575.0
22.565037860 22378.0
22.575904300 23146.0
22.586770740 23377.0
22.597637180 23764.0
22.608503620 24235.0
22.619370060 24271.0
22.630236500 25127.0
22.641102940 25042.0
22.651969380 24878.0
22.662835820 24749.0
22.673702260 24805.0
22.684568700 24036.0
22.695435140 23309.0
22.706301580 22934.0
22.717168020 21947.0
22.728034460 21456.0
22.738900900 20143.0
22.749767340 19372.0
22.760633780 19136.0
22.771500220 18196.0
22.782366660 17991.0
22.793233100 17521.0
22.804099540 16895.0
22.814965980 16969.0
22.825832420 16622.0
22.836698860 16233.0
22.847565300 16072.0
22.858431740 16243.0
22.869298180 15779.0
22.880164620 16021.0
22.891031060 15794.0
22.901897500 16059.0
22.912763940 15971.0
22.923630380 15950.0
22.934496820 15752.0
22.945363260 16025.0
22.956229700 15951.0
22.967096140 15837.0
22.977962580 15652.0
22.988829020 15740.0
22.999695460 15875.0
23.010561900 15829.0
23.021428340 15793.0
23.032294780 15835.0
23.043161220 15603.0
23.054027660 15836.0
23.064894100 15618.0
23.075760540 15486.0
23.086626980 15641.0
23.097493420 15814.0
23.108359860 15990.0
23.119226300 15649.0
23.130092740 15665.0
23.140959180 15433.0
23.151825620 15552.0
23.162692060 15612.0
23.173558500 15809.0
23.184424940 15677.0
23.195291380 15622.0
23.206157820 15390.0
23.217024260 15778.0
23.227890700 15670.0
23.238757140 15651.0
23.249623580 15432.0
23.260490020 16007.0
23.271356460 15850.0
23.282222900 15622.0
23.293089340 15541.0
23.303955780 15673.0
23.314822220 15550.0
23.325688660 15437.0
23.336555100 15732.0
23.347421540 15567.0
23.358287980 15491.0
23.369154420 15443.0
23.380020860 15637.0
23.390887300 15312.0
23.401753740 15375.0
23.412620180 15482.0
23.423486620 15354.0
23.434353060 15450.0
23.445219500 15458.0
23.456085940 15326.0
23.466952380 15633.0
23.477818820 15519.0
23.488685260 15396.0
23.499551700 15324.0
23.510418140 15166.0
23.521284580 15518.0
23.532151020 15682.0
23.543017460 15497.0
23.553883900 15341.0
23.564750340 15387.0
23.575616780 15538.0
23.586483220 15508.0
23.597349660 15628.0
23.608216100 15368.0
23.619082540 15374.0
23.629948980 15469.0
23.640815420 15488.0
23.651681860 15258.0
23.662548300 15378.0
23.673414740 15153.0
23.684281180 15328.0
23.695147620 15290.0
23.706014060 15585.0
23.716880500 15475.0
23.727746940 15482.0
23.738613380 15380.0
23.749479820 15620.0
23.760346260 15391.0
23.771212700 15546.0
23.782079140 15335.0
23.792945580 15566.0
23.803812020 15383.0
23.814678460 15235.0
23.825544900 15318.0
23.836411340 15456.0
23.847277780 15369.0
23.858144220 15400.0
23.869010660 15425.0
23.879877100 15243.0
23.890743540 15573.0
23.901609980 15337.0
23.912476420 15416.0
23.923342860 15487.0
23.934209300 15633.0
23.945075740 15421.0
23.955942180 15338.0
23.966808620 15388.0
23.977675060 15500.0
23.988541500 15526.0
23.999407940 15542.0
24.010274380 15496.0
24.021140820 15655.0
24.032007260 15235.0
24.042873700 15429.0
24.053740140 15413.0
24.064606580 15337.0
24.075473020 15417.0
24.086339460 15493.0
24.097205900 15116.0
24.108072340 15589.0
24.118938780 15428.0
24.129805220 15597.0
24.140671660 15530.0
24.151538100 15649.0
24.162404540 15479.0
24.173270980 15263.0
24.184137420 15370.0
24.195003860 15512.0
24.205870300 15428.0
24.216736740 15633.0
24.227603180 15666.0
24.238469620 15348.0
24.249336060 15527.0
24.260202500 15502.0
24.271068940 15638.0
24.281935380 15415.0
24.292801820 15422.0
24.303668260 15486.0
24.314534700 15193.0
24.325401140 15710.0
24.336267580 15731.0
24.347134020 15476.0
24.358000460 15551.0
24.368866900 15592.0
24.379733340 15676.0
24.390599780 15545.0
24.401466220 15602.0
24.412332660 15879.0
24.423199100 15770.0
24.434065540 15621.0
24.444931980 15515.0
24.455798420 15707.0
24.466664860 15706.0
24.477531300 15539.0
24.488397740 15659.0
24.499264180 15778.0
24.510130620 15714.0
24.520997060 15736.0
24.531863500 15689.0
24.542729940 15571.0
24.553596380 15685.0
24.564462820 15732.0
24.575329260 15707.0
24.586195700 16185.0
24.597062140 15730.0
24.607928580 15907.0
24.618795020 16149.0
24.629661460 16036.0
24.640527900 16210.0
24.651394340 16298.0
24.662260780 16146.0
24.673127220 16160.0
24.683993660 16418.0
24.694860100 16417.0
24.705726540 16448.0
24.716592980 16596.0
24.727459420 16451.0
24.738325860 16938.0
24.749192300 16863.0
24.760058740 16965.0
24.770925180 16811.0
24.781791620 16843.0
24.792658060 17215.0
24.803524500 17135.0
24.814390940 17280.0
24.825257380 17314.0
24.836123820 17347.0
24.846990260 16985.0
24.857856700 17388.0
24.868723140 17103.0
24.879589580 17363.0
24.890456020 17024.0
24.901322460 17206.0
24.912188900 17144.0
24.923055340 16948.0
24.933921780 17091.0
24.944788220 17211.0
24.955654660 17016.0
24.966521100 17343.0
24.977387540 17596.0
24.988253980 17969.0
24.999120420 17927.0
25.009986860 18156.0
25.020853300 18564.0
25.031719740 18984.0
25.042586180 19285.0
25.053452620 20047.0
25.064319060 20540.0
25.075185500 21183.0
25.086051940 21881.0
25.096918380 23127.0
25.107784820 24142.0
25.118651260 25081.0
25.129517700 26520.0
25.140384140 27770.0
25.151250580 29252.0
25.162117020 30458.0
25.172983460 31996.0
25.183849900 32973.0
25.194716340 34552.0
25.205582780 36045.0
25.216449220 37238.0
25.227315660 38496.0
25.238182100 39174.0
25.249048540 39254.0
25.259914980 40457.0
25.270781420 40629.0
25.281647860 40798.0
25.292514300 40985.0
25.303380740 40896.0
25.314247180 40830.0
25.325113620 40295.0
25.335980060 39762.0
25.346846500 39528.0
25.357712940 39004.0
25.368579380 38507.0
25.379445820 37819.0
25.390312260 37116.0
25.401178700 36477.0
25.412045140 36013.0
25.422911580 34499.0
25.433778020 33281.0
25.444644460 31796.0
25.455510900 30617.0
25.466377340 28801.0
25.477243780 27301.0
25.488110220 26131.0
25.498976660 24018.0
25.509843100 22828.0
25.520709540 21724.0
25.531575980 20411.0
25.542442420 19760.0
25.553308860 18610.0
25.564175300 18249.0
25.575041740 17547.0
25.585908180 17394.0
25.596774620 17141.0
25.607641060 16680.0
25.618507500 16706.0
25.629373940 16395.0
25.640240380 16448.0
25.651106820 16403.0
25.661973260 16137.0
25.672839700 16236.0
25.683706140 16402.0
25.694572580 16207.0
25.705439020 16364.0
25.716305460 15936.0
25.727171900 16250.0
25.738038340 16135.0
25.748904780 16072.0
25.759771220 16122.0
25.770637660 15980.0
25.781504100 15888.0
25.792370540 16217.0
25.803236980 16036.0
25.814103420 15740.0
25.824969860 15829.0
25.835836300 15962.0
25.846702740 15959.0
25.857569180 16124.0
25.868435620 15966.0
25.879302060 16268.0
25.890168500 16064.0
25.901034940 16245.0
25.911901380 16249.0
25.922767820 16046.0
25.933634260 16384.0
25.944500700 16564.0
25.955367140 16542.0
25.966233580 16649.0
25.977100020 16797.0
25.987966460 16829.0
25.998832900 16953.0
26.009699340 17062.0
26.020565780 17195.0
26.031432220 17161.0
26.042298660 17083.0
26.053165100 17508.0
26.064031540 17401.0
26.074897980 17402.0
26.085764420 17502.0
26.096630860 17547.0
26.107497300 17337.0
26.118363740 17685.0
26.129230180 17165.0
26.140096620 17154.0
26.150963060 17032.0
26.161829500 17287.0
26.172695940 17025.0
26.183562380 17009.0
26.194428820 16706.0
26.205295260 16956.0
26.216161700 16901.0
26.227028140 16556.0
26.237894580 16813.0
26.248761020 16617.0
26.259627460 16770.0
26.270493900 16685.0
26.281360340 16912.0
26.292226780 16922.0
26.303093220 16829.0
26.313959660 17172.0
26.324826100 17263.0
26.335692540 17342.0
26.346558980 17265.0
26.357425420 17494.0
26.368291860 17519.0
26.379158300 17769.0
26.390024740 17905.0
26.400891180 18111.0
26.411757620 18104.0
26.422624060 18121.0
26.433490500 18564.0
26.444356940 18773.0
26.455223380 18702.0
26.466089820 19120.0
26.476956260 19164.0
26.487822700 19877.0
26.498689140 20171.0
26.509555580 20768.0
26.520422020 20859.0
26.531288460 21560.0
26.542154900 22279.0
26.553021340 23017.0
26.563887780 23971.0
26.574754220 24431.0
26.585620660 25681.0
26.596487100 26529.0
26.607353540 27680.0
26.618219980 29255.0
26.629086420 30485.0
26.639952860 32261.0
26.650819300 33030.0
26.661685740 35279.0
26.672552180 36418.0
26.683418620 38341.0
26.694285060 39905.0
26.705151500 41430.0
26.716017940 43280.0
26.726884380 44633.0
26.737750820 45542.0
26.748617260 46377.0
26.759483700 47091.0
26.770350140 47198.0
26.781216580 46937.0
26.792083020 46613.0
26.802949460 46087.0
26.813815900 44860.0
26.824682340 43519.0
26.835548780 42275.0
26.846415220 40092.0
26.857281660 38367.0
26.868148100 36681.0
26.879014540 35283.0
26.889880980 33392.0
26.900747420 31905.0
26.911613860 30439.0
26.922480300 28615.0
26.933346740 27736.0
26.944213180 26598.0
26.955079620 25314.0
26.965946060 24490.0
26.976812500 23657.0
26.987678940 23102.0
26.998545380 22353.0
27.009411820 21993.0
27.020278260 21270.0
27.031144700 20862.0
27.042011140 20241.0
27.052877580 19986.0
27.063744020 19611.0
27.074610460 19497.0
27.085476900 19259.0
27.096343340 18917.0
27.107209780 18709.0
27.118076220 18461.0
27.128942660 18269.0
27.139809100 17865.0
27.150675540 17746.0
27.161541980 17814.0
27.172408420 17610.0
27.183274860 17420.0
27.194141300 17001.0
27.205007740 17206.0
27.215874180 16757.0
27.226740620 16961.0
27.237607060 16395.0
27.248473500 16695.0
27.259339940 16390.0
27.270206380 16527.0
27.281072820 16105.0
27.291939260 16157.0
27.302805700 15970.0
27.313672140 16061.0
27.324538580 15812.0
27.335405020 15912.0
27.346271460 15865.0
27.357137900 15670.0
27.368004340 15674.0
27.378870780 15857.0
27.389737220 15496.0
27.400603660 15679.0
27.411470100 15268.0
27.422336540 15366.0
27.433202980 15355.0
27.444069420 15190.0
27.454935860 15219.0
27.465802300 15380.0
27.476668740 15214.0
27.487535180 15320.0
27.498401620 15389.0
27.509268060 14985.0
27.520134500 15054.0
27.531000940 15342.0
27.541867380 15029.0
27.552733820 15405.0
27.563600260 15067.0
27.574466700 15018.0
27.585333140 14841.0
27.596199580 15147.0
27.607066020 15062.0
27.617932460 14982.0
27.628798900 14967.0
27.639665340 14869.0
27.650531780 14807.0
27.661398220 14723.0
27.672264660 14813.0
27.683131100 14931.0
27.693997540 14705.0
27.704863980 14778.0
27.715730420 14630.0
27.726596860 14777.0
27.737463300 14328.0
27.748329740 14795.0
27.759196180 14586.0
27.770062620 14451.0
27.780929060 14467.0
27.791795500 14851.0
27.802661940 14692.0
27.813528380 14620.0
27.824394820 14439.0
27.835261260 14578.0
27.846127700 14467.0
27.856994140 14472.0
27.867860580 14685.0
27.878727020 14675.0
27.889593460 14458.0
27.900459900 14660.0
27.911326340 14068.0
27.922192780 14591.0
27.933059220 14501.0
27.943925660 14701.0
27.954792100 14642.0
27.965658540 14459.0
27.976524980 14515.0
27.987391420 14530.0
27.998257860 14377.0
28.009124300 14407.0
28.019990740 14352.0
28.030857180 14596.0
28.041723620 14441.0
28.052590060 14657.0
28.063456500 14523.0
28.074322940 14454.0
28.085189380 14384.0
28.096055820 14458.0
28.106922260 14438.0
28.117788700 14606.0
28.128655140 14388.0
28.139521580 14577.0
28.150388020 14155.0
28.161254460 14522.0
28.172120900 14391.0
28.182987340 14311.0
28.193853780 14450.0
28.204720220 14390.0
28.215586660 14359.0
28.226453100 14749.0
28.237319540 14327.0
28.248185980 14342.0
28.259052420 14557.0
28.269918860 14442.0
28.280785300 14654.0
28.291651740 14701.0
28.302518180 14751.0
28.313384620 14870.0
28.324251060 14691.0
28.335117500 14986.0
28.345983940 14783.0
28.356850380 15004.0
28.367716820 15072.0
28.378583260 14973.0
28.389449700 15166.0
28.400316140 15093.0
28.411182580 15362.0
28.422049020 15184.0
28.432915460 15248.0
28.443781900 15238.0
28.454648340 15144.0
28.465514780 15255.0
28.476381220 15094.0
28.487247660 15097.0
28.498114100 14722.0
28.508980540 15294.0
28.519846980 14826.0
28.530713420 15054.0
28.541579860 14809.0
28.552446300 14561.0
28.563312740 14622.0
28.574179180 14836.0
28.585045620 14819.0
28.595912060 14722.0
28.606778500 14890.0
28.617644940 14991.0
28.628511380 14664.0
28.639377820 15087.0
28.650244260 15136.0
28.661110700 15448.0
28.671977140 15717.0
28.682843580 15582.0
28.693710020 16177.0
28.704576460 16505.0
28.715442900 16685.0
28.726309340 17202.0
28.737175780 17547.0
28.748042220 18329.0
28.758908660 18718.0
28.769775100 19568.0
28.780641540 20000.0
28.791507980 20657.0
28.802374420 21081.0
28.813240860 21970.0
28.824107300 22478.0
28.834973740 23188.0
28.845840180 23701.0
28.856706620 23798.0
28.867573060 23944.0
28.878439500 24389.0
28.889305940 24093.0
28.900172380 24132.0
28.911038820 23560.0
28.921905260 23443.0
28.932771700 22976.0
28.943638140 22786.0
28.954504580 21629.0
28.965371020 20924.0
28.976237460 20382.0
28.987103900 19733.0
28.997970340 18876.0
29.008836780 18288.0
29.019703220 17802.0
29.030569660 17327.0
29.041436100 16209.0
29.052302540 15772.0
29.063168980 15769.0
29.074035420 15161.0
29.084901860 15027.0
29.095768300 14832.0
29.106634740 14556.0
29.117501180 14211.0
29.128367620 14291.0
29.139234060 14103.0
29.150100500 14088.0
29.160966940 13949.0
29.171833380 13863.0
29.182699820 14081.0
29.193566260 13940.0
29.204432700 13981.0
29.215299140 13850.0
29.226165580 13766.0
29.237032020 13800.0
29.247898460 13732.0
29.258764900 13857.0
29.269631340 14045.0
29.280497780 13915.0
29.291364220 13998.0
29.302230660 13914.0
29.313097100 13930.0
29.323963540 14110.0
29.334829980 13990.0
29.345696420 13904.0
29.356562860 14219.0
29.367429300 14385.0
29.378295740 14517.0
29.389162180 14590.0
29.400028620 15248.0
29.410895060 15179.0
29.421761500 15567.0
29.432627940 15798.0
29.443494380 16262.0
29.454360820 16837.0
29.465227260 17575.0
29.476093700 17785.0
29.486960140 19044.0
29.497826580 19007.0
29.508693020 19881.0
29.519559460 20563.0
29.530425900 20777.0
29.541292340 21169.0
29.552158780 21894.0
29.563025220 21764.0
29.573891660 22132.0
29.584758100 22043.0
29.595624540 21688.0
29.606490980 21616.0
29.617357420 20996.0
29.628223860 20495.0
29.639090300 19758.0
29.649956740 19327.0
29.660823180 18640.0
29.671689620 17930.0
29.682556060 16994.0
29.693422500 16339.0
29.704288940 15671.0
29.715155380 15221.0
29.726021820 14723.0
29.736888260 14381.0
29.747754700 14300.0
29.758621140 13834.0
29.769487580 13803.0
29.780354020 13401.0
29.791220460 13317.0
29.802086900 13569.0
29.812953340 13333.0
29.823819780 13331.0
29.834686220 13274.0
29.845552660 13247.0
29.856419100 13189.0
29.867285540 13251.0
29.878151980 13118.0
29.889018420 13316.0
29.899884860 13078.0
29.910751300 13115.0
29.921617740 13056.0
29.932484180 12965.0
29.943350620 13166.0
29.954217060 13018.0
29.965083500 13169.0
29.975949940 12923.0
29.986816380 12871.0
29.997682820 13120.0
30.008549260 13166.0
30.019415700 12802.0
30.030282140 12913.0
30.041148580 12761.0
30.052015020 13041.0
30.062881460 12699.0
30.073747900 12908.0
30.084614340 12904.0
30.095480780 12959.0
30.106347220 12816.0
30.117213660 13061.0
30.128080100 12683.0
30.138946540 12874.0
30.149812980 12873.0
30.160679420 12829.0
30.171545860 12815.0
30.182412300 12888.0
30.193278740 12846.0
30.204145180 13032.0
30.215011620 12743.0
30.225878060 12847.0
30.236744500 12632.0
30.247610940 12610.0
30.258477380 12542.0
30.269343820 12650.0
30.280210260 12536.0
30.291076700 12513.0
30.301943140 12587.0
30.312809580 12926.0
30.323676020 12830.0
30.334542460 12986.0
30.345408900 12692.0
30.356275340 12558.0
30.367141780 12723.0
30.378008220 12730.0
30.388874660 12653.0
30.399741100 12678.0
30.410607540 12875.0
30.421473980 12752.0
30.432340420 12484.0
30.443206860 12651.0
30.454073300 12650.0
30.464939740 12487.0
30.475806180 12720.0
30.486672620 12754.0
30.497539060 12570.0
30.508405500 12719.0
30.519271940 12593.0
30.530138380 12617.0
30.541004820 12548.0
30.551871260 12660.0
30.562737700 12623.0
30.573604140 12865.0
30.584470580 12886.0
30.595337020 12836.0
30.606203460 12530.0
30.617069900 12722.0
30.627936340 12751.0
30.638802780 12691.0
30.649669220 12605.0
30.660535660 12714.0
30.671402100 12355.0
30.682268540 12663.0
30.693134980 12599.0
30.704001420 12614.0
30.714867860 12576.0
30.725734300 12451.0
30.736600740 12667.0
30.747467180 12539.0
30.758333620 12388.0
30.769200060 12579.0
30.780066500 12439.0
30.790932940 12619.0
30.801799380 12435.0
30.812665820 12662.0
30.823532260 12361.0
30.834398700 12565.0
30.845265140 12538.0
30.856131580 12544.0
30.866998020 12463.0
30.877864460 12583.0
30.888730900 12364.0
30.899597340 12382.0
30.910463780 12401.0
30.921330220 12470.0
30.932196660 12249.0
30.943063100 12325.0
30.953929540 12423.0
30.964795980 12213.0
30.975662420 12375.0
30.986528860 12462.0
30.997395300 12505.0
31.008261740 12332.0
31.019128180 12456.0
31.029994620 12460.0
31.040861060 12246.0
31.051727500 12441.0
31.062593940 12331.0
31.073460380 12403.0
31.084326820 12313.0
31.095193260 12230.0
31.106059700 12276.0
31.116926140 12267.0
31.127792580 12375.0
31.138659020 12425.0
31.149525460 12339.0
31.160391900 12574.0
31.171258340 12063.0
31.182124780 12300.0
31.192991220 12267.0
31.203857660 12138.0
31.214724100 11916.0
31.225590540 12410.0
31.236456980 12332.0
31.247323420 12215.0
31.258189860 12337.0
31.269056300 12190.0
31.279922740 12281.0
31.290789180 12438.0
31.301655620 12392.0
31.312522060 12327.0
31.323388500 12262.0
31.334254940 12647.0
31.345121380 12303.0
31.355987820 12368.0
31.366854260 12286.0
31.377720700 12521.0
31.388587140 12449.0
31.399453580 12516.0
31.410320020 12660.0
31.421186460 12816.0
31.432052900 12610.0
31.442919340 12457.0
31.453785780 12522.0
31.464652220 12782.0
31.475518660 12265.0
31.486385100 12478.0
31.497251540 12284.0
31.508117980 12297.0
31.518984420 12254.0
31.529850860 12423.0
31.540717300 12431.0
31.551583740 12395.0
31.562450180 12260.0
31.573316620 12393.0
31.584183060 12191.0
31.595049500 12561.0
31.605915940 12133.0
31.616782380 12262.0
31.627648820 12207.0
31.638515260 12329.0
31.649381700 12246.0
31.660248140 12116.0
31.671114580 12160.0
31.681981020 12057.0
31.692847460 12035.0
31.703713900 12159.0
31.714580340 12123.0
31.725446780 12127.0
31.736313220 11968.0
31.747179660 12049.0
31.758046100 12296.0
31.768912540 12233.0
31.779778980 11943.0
31.790645420 11998.0
31.801511860 11907.0
31.812378300 12118.0
31.823244740 11870.0
31.834111180 12189.0
31.844977620 11627.0
31.855844060 12028.0
31.866710500 12084.0
31.877576940 11959.0
31.888443380 11983.0
31.899309820 12112.0
31.910176260 11840.0
31.921042700 12231.0
31.931909140 11847.0
31.942775580 11766.0
31.953642020 11955.0
31.964508460 12220.0
31.975374900 11926.0
31.986241340 11985.0
31.997107780 11876.0
32.007974220 12072.0
32.018840660 11911.0
32.029707100 11998.0
32.040573540 11815.0
32.051439980 11982.0
32.062306420 11943.0
32.073172860 11824.0
32.084039300 11893.0
32.094905740 11965.0
32.105772180 11839.0
32.116638620 11813.0
32.127505060 11720.0
32.138371500 11941.0
32.149237940 11839.0
32.160104380 11917.0
32.170970820 11784.0
32.181837260 12104.0
32.192703700 11785.0
32.203570140 11870.0
32.214436580 11726.0
32.225303020 11837.0
32.236169460 11848.0
32.247035900 12032.0
32.257902340 12045.0
32.268768780 11847.0
32.279635220 11625.0
32.290501660 12007.0
32.301368100 12027.0
32.312234540 11947.0
32.323100980 11843.0
32.333967420 11930.0
32.344833860 11624.0
32.355700300 11823.0
32.366566740 11948.0
32.377433180 11762.0
32.388299620 11995.0
32.399166060 11850.0
32.410032500 12054.0
32.420898940 12020.0
32.431765380 12180.0
32.442631820 11901.0
32.453498260 12069.0
32.464364700 12252.0
32.475231140 12044.0
32.486097580 12377.0
32.496964020 12459.0
32.507830460 12870.0
32.518696900 12822.0
32.529563340 12961.0
32.540429780 13229.0
32.551296220 13553.0
32.562162660 14185.0
32.573029100 14640.0
32.583895540 15042.0
32.594761980 15619.0
32.605628420 16292.0
32.616494860 16667.0
32.627361300 17597.0
32.638227740 18127.0
32.649094180 18964.0
32.659960620 19570.0
32.670827060 20021.0
32.681693500 20664.0
32.692559940 20861.0
32.703426380 21322.0
32.714292820 21252.0
32.725159260 21374.0
32.736025700 20968.0
32.746892140 20897.0
32.757758580 20442.0
32.768625020 19774.0
32.779491460 19026.0
32.790357900 18301.0
32.801224340 17497.0
32.812090780 16719.0
32.822957220 16106.0
32.833823660 15370.0
32.844690100 14745.0
32.855556540 14080.0
32.866422980 13508.0
32.877289420 13468.0
32.888155860 12900.0
32.899022300 12784.0
32.909888740 12449.0
32.920755180 12324.0
32.931621620 12097.0
32.942488060 12031.0
32.953354500 11850.0
32.964220940 11916.0
32.975087380 11799.0
32.985953820 11911.0
32.996820260 11689.0
33.007686700 11839.0
33.018553140 11857.0
33.029419580 12053.0
33.040286020 11734.0
33.051152460 11778.0
33.062018900 11601.0
33.072885340 11991.0
33.083751780 11746.0
33.094618220 11734.0
33.105484660 11814.0
33.116351100 11903.0
33.127217540 11961.0
33.138083980 11971.0
33.148950420 11755.0
33.159816860 12285.0
33.170683300 12018.0
33.181549740 12348.0
33.192416180 12111.0
33.203282620 11972.0
33.214149060 12395.0
33.225015500 12280.0
33.235881940 12262.0
33.246748380 12369.0
33.257614820 12405.0
33.268481260 12354.0
33.279347700 12233.0
33.290214140 12096.0
33.301080580 12017.0
33.311947020 11895.0
33.322813460 12090.0
33.333679900 12123.0
33.344546340 11980.0
33.355412780 12140.0
33.366279220 11887.0
33.377145660 11975.0
33.388012100 11827.0
33.398878540 11775.0
33.409744980 11758.0
33.420611420 11918.0
33.431477860 11819.0
33.442344300 11708.0
33.453210740 11834.0
33.464077180 11927.0
33.474943620 11861.0
33.485810060 12413.0
33.496676500 12239.0
33.507542940 12546.0
33.518409380 12368.0
33.529275820 12219.0
33.540142260 12647.0
33.551008700 12709.0
33.561875140 12785.0
33.572741580 13034.0
33.583608020 13172.0
33.594474460 13541.0
33.605340900 13925.0
33.616207340 14216.0
33.627073780 14472.0
33.637940220 15021.0
33.648806660 15253.0
33.659673100 15990.0
33.670539540 16142.0
33.681405980 17026.0
33.692272420 17566.0
33.703138860 17920.0
33.714005300 18134.0
33.724871740 18885.0
33.735738180 19136.0
33.746604620 19520.0
33.757471060 19697.0
33.768337500 20141.0
33.779203940 20258.0
33.790070380 20376.0
33.800936820 20893.0
33.811803260 21119.0
33.822669700 21234.0
33.833536140 22042.0
33.844402580 22069.0
33.855269020 22721.0
33.866135460 23356.0
33.877001900 23753.0
33.887868340 24249.0
33.898734780 25017.0
33.909601220 25222.0
33.920467660 25699.0
33.931334100 26297.0
33.942200540 26292.0
33.953066980 26308.0
33.963933420 26517.0
33.974799860 26160.0
33.985666300 26062.0
33.996532740 25651.0
34.007399180 25396.0
34.018265620 24645.0
34.029132060 24381.0
34.039998500 23426.0
34.050864940 22878.0
34.061731380 21740.0
34.072597820 21124.0
34.083464260 20186.0
34.094330700 19390.0
34.105197140 19009.0
34.116063580 18242.0
34.126930020 17614.0
34.137796460 17124.0
34.148662900 16390.0
34.159529340 15849.0
34.170395780 15685.0
34.181262220 15278.0
34.192128660 14762.0
34.202995100 14417.0
34.213861540 14128.0
34.224727980 13823.0
34.235594420 13737.0
34.246460860 13373.0
34.257327300 13163.0
34.268193740 13198.0
34.279060180 12757.0
34.289926620 12769.0
34.300793060 12638.0
34.311659500 12415.0
34.322525940 12293.0
34.333392380 12376.0
34.344258820 12261.0
34.355125260 12173.0
34.365991700 12024.0
34.376858140 11925.0
34.387724580 11841.0
34.398591020 11678.0
34.409457460 11755.0
34.420323900 11773.0
34.431190340 11487.0
34.442056780 11546.0
34.452923220 11419.0
34.463789660 11690.0
34.474656100 11632.0
34.485522540 11362.0
34.496388980 11410.0
34.507255420 11602.0
34.518121860 11714.0
34.528988300 11765.0
34.539854740 11638.0
34.550721180 11586.0
34.561587620 11727.0
34.572454060 12104.0
34.583320500 11909.0
34.594186940 12313.0
34.605053380 12357.0
34.615919820 12531.0
34.626786260 12583.0
34.637652700 12658.0
34.648519140 12839.0
34.659385580 12877.0
34.670252020 12992.0
34.681118460 12977.0
34.691984900 13018.0
34.702851340 13016.0
34.713717780 12910.0
34.724584220 12878.0
34.735450660 12811.0
34.746317100 12701.0
34.757183540 12662.0
34.768049980 12519.0
34.778916420 11850.0
34.789782860 11822.0
34.800649300 11777.0
34.811515740 11438.0
34.822382180 11373.0
34.833248620 11297.0
34.844115060 11158.0
34.854981500 11024.0
34.865847940 11010.0
34.876714380 10805.0
34.887580820 10839.0
34.898447260 10573.0
34.909313700 10465.0
34.920180140 10602.0
34.931046580 10600.0
34.941913020 10629.0
34.952779460 10508.0
34.963645900 10440.0
34.974512340 10471.0
34.985378780 10525.0
34.996245220 10465.0
35.007111660 10469.0
35.017978100 10378.0
35.028844540 10314.0
35.039710980 10286.0
35.050577420 10364.0
35.061443860 10222.0
35.072310300 10421.0
35.083176740 10348.0
35.094043180 10198.0
35.104909620 10161.0
35.115776060 10150.0
35.126642500 10344.0
35.137508940 10331.0
35.148375380 10500.0
35.159241820 10198.0
35.170108260 10108.0
35.180974700 10237.0
35.191841140 10110.0
35.202707580 10215.0
35.213574020 9987.0
35.224440460 10154.0
35.235306900 10051.0
35.246173340 10171.0
35.257039780 10264.0
35.267906220 9931.0
35.278772660 10075.0
35.289639100 10209.0
35.300505540 10182.0
35.311371980 10086.0
35.322238420 10054.0
35.333104860 9940.0
35.343971300 10127.0
35.354837740 10153.0
35.365704180 9912.0
35.376570620 10112.0
35.387437060 10171.0
35.398303500 10125.0
35.409169940 10112.0
35.420036380 10292.0
35.430902820 9992.0
35.441769260 10159.0
35.452635700 10077.0
35.463502140 10034.0
35.474368580 10010.0
35.485235020 10157.0
35.496101460 10058.0
35.506967900 10154.0
35.517834340 10323.0
35.528700780 10220.0
35.539567220 10193.0
35.550433660 10150.0
35.561300100 10143.0
35.572166540 10328.0
35.583032980 10115.0
35.593899420 10313.0
35.604765860 10319.0
35.615632300 10484.0
35.626498740 10424.0
35.637365180 10405.0
35.648231620 10656.0
35.659098060 10634.0
35.669964500 11014.0
35.680830940 10923.0
35.691697380 11117.0
35.702563820 11463.0
35.713430260 11576.0
35.724296700 12010.0
35.735163140 12208.0
35.746029580 12910.0
35.756896020 13181.0
35.767762460 13635.0
35.778628900 14277.0
35.789495340 14956.0
35.800361780 15272.0
35.811228220 16216.0
35.822094660 16829.0
35.832961100 17481.0
35.843827540 18163.0
35.854693980 18672.0
35.865560420 19194.0
35.876426860 19730.0
35.887293300 20055.0
35.898159740 20112.0
35.909026180 19929.0
35.919892620 20321.0
35.930759060 19840.0
35.941625500 19788.0
35.952491940 19165.0
35.963358380 19092.0
35.974224820 18264.0
35.985091260 18045.0
35.995957700 17260.0
36.006824140 16795.0
36.017690580 16431.0
36.028557020 15810.0
36.039423460 15558.0
36.050289900 15122.0
36.061156340 14275.0
36.072022780 14267.0
36.082889220 13709.0
36.093755660 13155.0
36.104622100 13040.0
36.115488540 12609.0
36.126354980 12166.0
36.137221420 11712.0
36.148087860 11496.0
36.158954300 11297.0
36.169820740 11242.0
36.180687180 10882.0
36.191553620 10710.0
36.202420060 10535.0
36.213286500 10434.0
36.224152940 10425.0
36.235019380 10222.0
36.245885820 9843.0
36.256752260 10072.0
36.267618700 9860.0
36.278485140 9505.0
36.289351580 9959.0
36.300218020 9476.0
36.311084460 9714.0
36.321950900 9795.0
36.332817340 9870.0
36.343683780 9597.0
36.354550220 9670.0
36.365416660 9513.0
36.376283100 9518.0
36.387149540 9438.0
36.398015980 9469.0
36.408882420 9692.0
36.419748860 9496.0
36.430615300 9532.0
36.441481740 9284.0
36.452348180 9354.0
36.463214620 9447.0
36.474081060 9430.0
36.484947500 9495.0
36.495813940 9538.0
36.506680380 9254.0
36.517546820 9494.0
36.528413260 9443.0
36.539279700 9383.0
36.550146140 9424.0
36.561012580 9403.0
36.571879020 9581.0
36.582745460 9510.0
36.593611900 9421.0
36.604478340 9338.0
36.615344780 9332.0
36.626211220 9444.0
36.637077660 9425.0
36.647944100 9652.0
36.658810540 9361.0
36.669676980 9364.0
36.680543420 9425.0
36.691409860 9248.0
36.702276300 9367.0
36.713142740 9379.0
36.724009180 9509.0
36.734875620 9329.0
36.745742060 9447.0
36.756608500 9488.0
36.767474940 9555.0
36.778341380 9281.0
36.789207820 9510.0
36.800074260 9384.0
36.810940700 9415.0
36.821807140 9437.0
36.832673580 9300.0
36.843540020 9391.0
36.854406460 9389.0
36.865272900 9448.0
36.876139340 9561.0
36.887005780 9451.0
36.897872220 9645.0
36.908738660 9225.0
36.919605100 9329.0
36.930471540 9266.0
36.941337980 9376.0
36.952204420 9187.0
36.963070860 9225.0
36.973937300 9304.0
36.984803740 9339.0
36.995670180 9418.0
37.006536620 9322.0
37.017403060 9458.0
37.028269500 9246.0
37.039135940 9322.0
37.050002380 9381.0
37.060868820 9250.0
37.071735260 9434.0
37.082601700 9240.0
37.093468140 9337.0
37.104334580 9303.0
37.115201020 9300.0
37.126067460 9343.0
37.136933900 9397.0
37.147800340 9660.0
37.158666780 9450.0
37.169533220 9526.0
37.180399660 9487.0
37.191266100 9513.0
37.202132540 9443.0
37.212998980 9630.0
37.223865420 9743.0
37.234731860 9849.0
37.245598300 9881.0
37.256464740 9920.0
37.267331180 9929.0
37.278197620 10090.0
37.289064060 10381.0
37.299930500 10278.0
37.310796940 10544.0
37.321663380 10743.0
37.332529820 10904.0
37.343396260 10978.0
37.354262700 11279.0
37.365129140 11307.0
37.375995580 11517.0
37.386862020 11635.0
37.397728460 11609.0
37.408594900 11689.0
37.419461340 11635.0
37.430327780 11781.0
37.441194220 11459.0
37.452060660 11489.0
37.462927100 11583.0
37.473793540 11485.0
37.484659980 11236.0
37.495526420 11163.0
37.506392860 10972.0
37.517259300 11029.0
37.528125740 10901.0
37.538992180 10895.0
37.549858620 10568.0
37.560725060 10772.0
37.571591500 10785.0
37.582457940 10807.0
37.593324380 10598.0
37.604190820 10732.0
37.615057260 10758.0
37.625923700 10886.0
37.636790140 10806.0
37.647656580 11001.0
37.658523020 11302.0
37.669389460 11348.0
37.680255900 11635.0
37.691122340 11927.0
37.701988780 12215.0
37.712855220 12483.0
37.723721660 12787.0
37.734588100 13284.0
37.745454540 13839.0
37.756320980 14307.0
37.767187420 14730.0
37.778053860 15321.0
37.788920300 16470.0
37.799786740 17306.0
37.810653180 18135.0
37.821519620 19512.0
37.832386060 20672.0
37.843252500 22199.0
37.854118940 23611.0
37.864985380 25318.0
37.875851820 26956.0
37.886718260 28529.0
37.897584700 30315.0
37.908451140 31840.0
37.919317580 33671.0
37.930184020 35060.0
37.941050460 36674.0
37.951916900 37345.0
37.962783340 38691.0
37.973649780 38928.0
37.984516220 39821.0
37.995382660 39658.0
38.006249100 39433.0
38.017115540 39168.0
38.027981980 38377.0
38.038848420 37597.0
38.049714860 36215.0
38.060581300 35278.0
38.071447740 33940.0
38.082314180 32407.0
38.093180620 31074.0
38.104047060 29003.0
38.114913500 28011.0
38.125779940 26341.0
38.136646380 25145.0
38.147512820 23715.0
38.158379260 22835.0
38.169245700 21375.0
38.180112140 20071.0
38.190978580 19146.0
38.201845020 17964.0
38.212711460 17288.0
38.223577900 16521.0
38.234444340 16053.0
38.245310780 15058.0
38.256177220 14735.0
38.267043660 13812.0
38.277910100 13612.0
38.288776540 13182.0
38.299642980 12829.0
38.310509420 12435.0
38.321375860 12039.0
38.332242300 11900.0
38.343108740 11589.0
38.353975180 11127.0
38.364841620 10942.0
38.375708060 10800.0
38.386574500 10656.0
38.397440940 10534.0
38.408307380 10210.0
38.419173820 10134.0
38.430040260 10170.0
38.440906700 9732.0
38.451773140 9957.0
38.462639580 9456.0
38.473506020 9549.0
38.484372460 9384.0
38.495238900 9249.0
38.506105340 9394.0
38.516971780 9092.0
38.527838220 9103.0
38.538704660 9100.0
38.549571100 8974.0
38.560437540 8921.0
38.571303980 8793.0
38.582170420 8896.0
38.593036860 8930.0
38.603903300 8876.0
38.614769740 8959.0
38.625636180 8837.0
38.636502620 8620.0
38.647369060 8731.0
38.658235500 8704.0
38.669101940 8732.0
38.679968380 8757.0
38.690834820 8549.0
38.701701260 8787.0
38.712567700 8808.0
38.723434140 8619.0
38.734300580 8633.0
38.745167020 8586.0
38.756033460 8650.0
38.766899900 8614.0
38.777766340 8397.0
38.788632780 8565.0
38.799499220 8530.0
38.810365660 8568.0
38.821232100 8605.0
38.832098540 8776.0
38.842964980 8539.0
38.853831420 8585.0
38.864697860 8530.0
38.875564300 8487.0
38.886430740 8559.0
38.897297180 8715.0
38.908163620 8844.0
38.919030060 8642.0
38.929896500 8816.0
38.940762940 8883.0
38.951629380 8829.0
38.962495820 8632.0
38.973362260 8772.0
38.984228700 8731.0
38.995095140 8721.0
39.005961580 8702.0
39.016828020 8648.0
39.027694460 8935.0
39.038560900 8897.0
39.049427340 8808.0
39.060293780 8798.0
39.071160220 8823.0
39.082026660 9046.0
39.092893100 8891.0
39.103759540 8937.0
39.114625980 8768.0
39.125492420 8745.0
39.136358860 8743.0
39.147225300 8775.0
39.158091740 8684.0
39.168958180 8627.0
39.179824620 8777.0
39.190691060 8682.0
39.201557500 8586.0
39.212423940 8538.0
39.223290380 8515.0
39.234156820 8620.0
39.245023260 8281.0
39.255889700 8417.0
39.266756140 8171.0
39.277622580 8298.0
39.288489020 8453.0
39.299355460 8352.0
39.310221900 8520.0
39.321088340 8337.0
39.331954780 8213.0
39.342821220 8383.0
39.353687660 8265.0
39.364554100 8247.0
39.375420540 8146.0
39.386286980 8264.0
39.397153420 8209.0
39.408019860 8319.0
39.418886300 8355.0
39.429752740 8577.0
39.440619180 8377.0
39.451485620 8358.0
39.462352060 8333.0
39.473218500 8374.0
39.484084940 8160.0
39.494951380 8322.0
39.505817820 7952.0
39.516684260 8064.0
39.527550700 8037.0
39.538417140 8271.0
39.549283580 8180.0
39.560150020 8175.0
39.571016460 8452.0
39.581882900 8212.0
39.592749340 8166.0
39.603615780 8150.0
39.614482220 8297.0
39.625348660 8230.0
39.636215100 8224.0
39.647081540 8185.0
39.657947980 8158.0
39.668814420 8079.0
39.679680860 8268.0
39.690547300 8409.0
39.701413740 8253.0
39.712280180 8515.0
39.723146620 8518.0
39.734013060 8517.0
39.744879500 8472.0
39.755745940 8718.0
39.766612380 8608.0
39.777478820 8817.0
39.788345260 8791.0
39.799211700 8922.0
39.810078140 9203.0
39.820944580 9174.0
39.831811020 9361.0
39.842677460 9577.0
39.853543900 9813.0
39.864410340 9913.0
39.875276780 10082.0
39.886143220 10354.0
39.897009660 10447.0
39.907876100 10680.0
39.918742540 10638.0
39.929608980 10737.0
39.940475420 10849.0
39.951341860 10990.0
39.962208300 11111.0
39.973074740 10842.0
39.983941180 10930.0
39.994807620 10783.0
