10.003433220 21782.0
10.014299660 21976.0
10.025166100 21968.0
10.036032540 21716.0
10.046898980 21609.0
10.057765420 21978.0
10.068631860 21827.0
10.079498300 21706.0
10.090364740 21425.0
10.101231180 21865.0
10.112097620 21855.0
10.122964060 21699.0
10.133830500 21766.0
10.144696940 21776.0
10.155563380 21626.0
10.166429820 21410.0
10.177296260 21897.0
10.188162700 21811.0
10.199029140 21588.0
10.209895580 21539.0
10.220762020 21626.0
10.231628460 21776.0
10.242494900 21642.0
10.253361340 21513.0
10.264227780 21882.0
10.275094220 21722.0
10.285960660 21731.0
10.296827100 21626.0
10.307693540 21170.0
10.318559980 21524.0
10.329426420 21567.0
10.340292860 21645.0
10.351159300 21330.0
10.362025740 21360.0
10.372892180 21659.0
10.383758620 21725.0
10.394625060 21270.0
10.405491500 21259.0
10.416357940 21494.0
10.427224380 21390.0
10.438090820 21318.0
10.448957260 21526.0
10.459823700 21595.0
10.470690140 21292.0
10.481556580 21367.0
10.492423020 21513.0
10.503289460 21423.0
10.514155900 21571.0
10.525022340 21396.0
10.535888780 21509.0
10.546755220 21365.0
10.557621660 21224.0
10.568488100 21596.0
10.579354540 21419.0
10.590220980 21481.0
10.601087420 21446.0
10.611953860 21388.0
10.622820300 21421.0
10.633686740 21431.0
10.644553180 21051.0
10.655419620 21012.0
10.666286060 21179.0
10.677152500 21241.0
10.688018940 21468.0
10.698885380 21324.0
10.709751820 21254.0
10.720618260 21100.0
10.731484700 21016.0
10.742351140 21276.0
10.753217580 21199.0
10.764084020 21104.0
10.774950460 21195.0
10.785816900 21347.0
10.796683340 21238.0
10.807549780 21235.0
10.818416220 21039.0
10.829282660 21261.0
10.840149100 21054.0
10.851015540 21167.0
10.861881980 21241.0
10.872748420 21331.0
10.883614860 20969.0
10.894481300 21021.0
10.905347740 21092.0
10.916214180 21314.0
10.927080620 21252.0
10.937947060 21289.0
10.948813500 21256.0
10.959679940 21125.0
10.970546380 21245.0
10.981412820 21449.0
10.992279260 21438.0
11.003145700 21130.0
11.014012140 21150.0
11.024878580 21168.0
11.035745020 21311.0
11.046611460 21323.0
11.057477900 21482.0
11.068344340 21534.0
11.079210780 21326.0
11.090077220 21355.0
11.100943660 21626.0
11.111810100 21728.0
11.122676540 21780.0
11.133542980 21520.0
11.144409420 21657.0
11.155275860 21613.0
11.166142300 22013.0
11.177008740 21838.0
11.187875180 22278.0
11.198741620 22319.0
11.209608060 22274.0
11.220474500 22077.0
11.231340940 22671.0
11.242207380 22803.0
11.253073820 22912.0
11.263940260 22926.0
11.274806700 23102.0
11.285673140 23280.0
11.296539580 23322.0
11.307406020 23317.0
11.318272460 23460.0
11.329138900 23358.0
11.340005340 23415.0
11.350871780 23436.0
11.361738220 23395.0
11.372604660 23205.0
11.383471100 23220.0
11.394337540 22911.0
11.405203980 22887.0
11.416070420 22600.0
11.426936860 22629.0
11.437803300 22187.0
11.448669740 22273.0
11.459536180 21671.0
11.470402620 21669.0
11.481269060 21607.0
11.492135500 21276.0
11.503001940 21349.0
11.513868380 20971.0
11.524734820 20837.0
11.535601260 20861.0
11.546467700 20908.0
11.557334140 20791.0
11.568200580 20792.0
11.579067020 20835.0
11.589933460 20393.0
11.600799900 20638.0
11.611666340 20529.0
11.622532780 20701.0
11.633399220 20453.0
11.644265660 20652.0
11.655132100 20573.0
11.665998540 20348.0
11.676864980 20524.0
11.687731420 20660.0
11.698597860 20387.0
11.709464300 20576.0
11.720330740 20208.0
11.731197180 20566.0
11.742063620 20728.0
11.752930060 20557.0
11.763796500 20289.0
11.774662940 20355.0
11.785529380 20266.0
11.796395820 20400.0
11.807262260 20260.0
11.818128700 20266.0
11.828995140 20361.0
11.839861580 20396.0
11.850728020 20425.0
11.861594460 20413.0
11.872460900 20166.0
11.883327340 20323.0
11.894193780 20134.0
11.905060220 20491.0
11.915926660 20340.0
11.926793100 20241.0
11.937659540 20416.0
11.948525980 20432.0
11.959392420 20083.0
11.970258860 20007.0
11.981125300 20115.0
11.991991740 20240.0
12.002858180 20388.0
12.013724620 20146.0
12.024591060 20216.0
12.035457500 20174.0
12.046323940 20141.0
12.057190380 20150.0
12.068056820 20042.0
12.078923260 20019.0
12.089789700 20088.0
12.100656140 20167.0
12.111522580 19996.0
12.122389020 20248.0
12.133255460 19802.0
12.144121900 20338.0
12.154988340 19830.0
12.165854780 20322.0
12.176721220 20068.0
12.187587660 20036.0
12.198454100 19997.0
12.209320540 19942.0
12.220186980 20202.0
12.231053420 19909.0
12.241919860 20178.0
12.252786300 20102.0
12.263652740 19850.0
12.274519180 19986.0
12.285385620 20306.0
12.296252060 20151.0
12.307118500 19838.0
12.317984940 19717.0
12.328851380 19803.0
12.339717820 19684.0
12.350584260 19901.0
12.361450700 20035.0
12.372317140 19743.0
12.383183580 20073.0
12.394050020 19554.0
12.404916460 19957.0
12.415782900 19999.0
12.426649340 19753.0
12.437515780 19782.0
12.448382220 19750.0
12.459248660 19727.0
12.470115100 19899.0
12.480981540 19841.0
12.491847980 19614.0
12.502714420 20037.0
12.513580860 19977.0
12.524447300 19556.0
12.535313740 19630.0
12.546180180 19786.0
12.557046620 19891.0
12.567913060 19778.0
12.578779500 19667.0
12.589645940 19773.0
12.600512380 19780.0
12.611378820 19941.0
12.622245260 19744.0
12.633111700 19673.0
12.643978140 19714.0
12.654844580 19735.0
12.665711020 19634.0
12.676577460 19605.0
12.687443900 19582.0
12.698310340 19630.0
12.709176780 19755.0
12.720043220 19600.0
12.730909660 19577.0
12.741776100 19526.0
12.752642540 19494.0
12.763508980 19734.0
12.774375420 19502.0
12.785241860 19744.0
12.796108300 19518.0
12.806974740 19627.0
12.817841180 19780.0
12.828707620 19481.0
12.839574060 19307.0
12.850440500 19610.0
12.861306940 19589.0
12.872173380 19553.0
12.883039820 19433.0
12.893906260 19395.0
12.904772700 19386.0
12.915639140 19529.0
12.926505580 19489.0
12.937372020 19326.0
12.948238460 19785.0
12.959104900 19398.0
12.969971340 19420.0
12.980837780 19399.0
12.991704220 19696.0
13.002570660 19773.0
13.013437100 19262.0
13.024303540 19378.0
13.035169980 19430.0
13.046036420 19417.0
13.056902860 19234.0
13.067769300 19402.0
13.078635740 19463.0
13.089502180 19336.0
13.100368620 19289.0
13.111235060 19308.0
13.122101500 19437.0
13.132967940 19253.0
13.143834380 19265.0
13.154700820 19416.0
13.165567260 19243.0
13.176433700 19234.0
13.187300140 19379.0
13.198166580 19322.0
13.209033020 19405.0
13.219899460 19272.0
13.230765900 19359.0
13.241632340 19311.0
13.252498780 19171.0
13.263365220 19218.0
13.274231660 19307.0
13.285098100 19260.0
13.295964540 19305.0
13.306830980 19115.0
13.317697420 19445.0
13.328563860 19377.0
13.339430300 19221.0
13.350296740 19164.0
13.361163180 19265.0
13.372029620 19240.0
13.382896060 19323.0
13.393762500 19226.0
13.404628940 19128.0
13.415495380 19107.0
13.426361820 19353.0
13.437228260 19031.0
13.448094700 19326.0
13.458961140 19226.0
13.469827580 19304.0
13.480694020 19154.0
13.491560460 19037.0
13.502426900 19036.0
13.513293340 19186.0
13.524159780 18934.0
13.535026220 18959.0
13.545892660 19181.0
13.556759100 19451.0
13.567625540 19069.0
13.578491980 19110.0
13.589358420 18888.0
13.600224860 19115.0
13.611091300 18953.0
13.621957740 18939.0
13.632824180 19040.0
13.643690620 19342.0
13.654557060 18964.0
13.665423500 19061.0
13.676289940 18951.0
13.687156380 18963.0
13.698022820 19035.0
13.708889260 18979.0
13.719755700 18887.0
13.730622140 19001.0
13.741488580 18944.0
13.752355020 18896.0
13.763221460 18966.0
13.774087900 19146.0
13.784954340 18849.0
13.795820780 18925.0
13.806687220 18935.0
13.817553660 19055.0
13.828420100 18808.0
13.839286540 18949.0
13.850152980 18755.0
13.861019420 18883.0
13.871885860 18922.0
13.882752300 18813.0
13.893618740 18883.0
13.904485180 18631.0
13.915351620 18991.0
13.926218060 18903.0
13.937084500 18769.0
13.947950940 18851.0
13.958817380 18642.0
13.969683820 19055.0
13.980550260 18504.0
13.991416700 18607.0
14.002283140 18630.0
14.013149580 18666.0
14.024016020 18871.0
14.034882460 18565.0
14.045748900 18593.0
14.056615340 18831.0
14.067481780 18933.0
14.078348220 18669.0
14.089214660 18617.0
14.100081100 18790.0
14.110947540 18631.0
14.121813980 18792.0
14.132680420 18523.0
14.143546860 18619.0
14.154413300 18700.0
14.165279740 18800.0
14.176146180 18713.0
14.187012620 18735.0
14.197879060 18400.0
14.208745500 18863.0
14.219611940 18771.0
14.230478380 18773.0
14.241344820 18556.0
14.252211260 18854.0
14.263077700 18491.0
14.273944140 18975.0
14.284810580 18597.0
14.295677020 18581.0
14.306543460 18751.0
14.317409900 18739.0
14.328276340 18520.0
14.339142780 18639.0
14.350009220 18337.0
14.360875660 18759.0
14.371742100 18418.0
14.382608540 18404.0
14.393474980 18563.0
14.404341420 18424.0
14.415207860 18755.0
14.426074300 18691.0
14.436940740 18308.0
14.447807180 18321.0
14.458673620 18295.0
14.469540060 18685.0
14.480406500 18233.0
14.491272940 18341.0
14.502139380 18373.0
14.513005820 18661.0
14.523872260 18324.0
14.534738700 18681.0
14.545605140 18252.0
14.556471580 18474.0
14.567338020 18420.0
14.578204460 18485.0
14.589070900 18571.0
14.599937340 18394.0
14.610803780 18183.0
14.621670220 18392.0
14.632536660 18504.0
14.643403100 18438.0
14.654269540 18600.0
14.665135980 18336.0
14.676002420 18347.0
14.686868860 18574.0
14.697735300 17927.0
14.708601740 18438.0
14.719468180 18555.0
14.730334620 18318.0
14.741201060 18257.0
14.752067500 18410.0
14.762933940 18282.0
14.773800380 18569.0
14.784666820 18229.0
14.795533260 18506.0
14.806399700 18279.0
14.817266140 18402.0
14.828132580 18380.0
14.838999020 18465.0
14.849865460 18262.0
14.860731900 18317.0
14.871598340 18333.0
14.882464780 18431.0
14.893331220 18040.0
14.904197660 18366.0
14.915064100 18296.0
14.925930540 18273.0
14.936796980 18124.0
14.947663420 18150.0
14.958529860 18188.0
14.969396300 18255.0
14.980262740 17864.0
14.991129180 18434.0
15.001995620 18091.0
15.012862060 18377.0
15.023728500 18104.0
15.034594940 18191.0
15.045461380 18064.0
15.056327820 18068.0
15.067194260 18358.0
15.078060700 18096.0
15.088927140 18167.0
15.099793580 18300.0
15.110660020 18269.0
15.121526460 18357.0
15.132392900 18138.0
15.143259340 18100.0
15.154125780 18173.0
15.164992220 18377.0
15.175858660 17926.0
15.186725100 18170.0
15.197591540 18017.0
15.208457980 18109.0
15.219324420 18250.0
15.230190860 18093.0
15.241057300 17975.0
15.251923740 18306.0
15.262790180 18007.0
15.273656620 18104.0
15.284523060 18238.0
15.295389500 18092.0
15.306255940 17873.0
15.317122380 18235.0
15.327988820 17880.0
15.338855260 18189.0
15.349721700 17937.0
15.360588140 17911.0
15.371454580 18145.0
15.382321020 18005.0
15.393187460 17819.0
15.404053900 18387.0
15.414920340 18264.0
15.425786780 18373.0
15.436653220 18152.0
15.447519660 18400.0
15.458386100 18199.0
15.469252540 18536.0
15.480118980 18167.0
15.490985420 18424.0
15.501851860 18511.0
15.512718300 18550.0
15.523584740 18381.0
15.534451180 18531.0
15.545317620 18741.0
15.556184060 18465.0
15.567050500 18618.0
15.577916940 18658.0
15.588783380 19043.0
15.599649820 18947.0
15.610516260 18999.0
15.621382700 19249.0
15.632249140 19221.0
15.643115580 19343.0
15.653982020 19862.0
15.664848460 19663.0
15.675714900 19828.0
15.686581340 20104.0
15.697447780 20344.0
15.708314220 20547.0
15.719180660 20754.0
15.730047100 21112.0
15.740913540 21112.0
15.751779980 22126.0
15.762646420 22242.0
15.773512860 23048.0
15.784379300 23603.0
15.795245740 24263.0
15.806112180 24731.0
15.816978620 25468.0
15.827845060 25972.0
15.838711500 26931.0
15.849577940 27111.0
15.860444380 27982.0
15.871310820 28718.0
15.882177260 29072.0
15.893043700 29614.0
15.903910140 30134.0
15.914776580 30138.0
15.925643020 30557.0
15.936509460 30065.0
15.947375900 29839.0
15.958242340 29769.0
15.969108780 29060.0
15.979975220 28559.0
15.990841660 27715.0
16.001708100 27054.0
16.012574540 26344.0
16.023440980 25535.0
16.034307420 24929.0
16.045173860 23990.0
16.056040300 23531.0
16.066906740 22761.0
16.077773180 22399.0
16.088639620 21722.0
16.099506060 21271.0
16.110372500 20704.0
16.121238940 20423.0
16.132105380 20208.0
16.142971820 19762.0
16.153838260 19380.0
16.164704700 19210.0
16.175571140 18761.0
16.186437580 18738.0
16.197304020 18419.0
16.208170460 18139.0
16.219036900 18144.0
16.229903340 18154.0
16.240769780 18153.0
16.251636220 18125.0
16.262502660 17522.0
16.273369100 17884.0
16.284235540 17850.0
16.295101980 17682.0
16.305968420 17612.0
16.316834860 17710.0
16.327701300 17753.0
16.338567740 17621.0
16.349434180 17651.0
16.360300620 17818.0
16.371167060 17269.0
16.382033500 17869.0
16.392899940 17640.0
16.403766380 17565.0
16.414632820 17505.0
16.425499260 17569.0
16.436365700 17360.0
16.447232140 17649.0
16.458098580 17553.0
16.468965020 17374.0
16.479831460 17606.0
16.490697900 17575.0
16.501564340 17454.0
16.512430780 17459.0
16.523297220 17472.0
16.534163660 17476.0
16.545030100 17417.0
16.555896540 17466.0
16.566762980 17535.0
16.577629420 17326.0
16.588495860 17443.0
16.599362300 17332.0
16.610228740 17492.0
16.621095180 17502.0
16.631961620 17411.0
16.642828060 17709.0
16.653694500 17392.0
16.664560940 17325.0
16.675427380 17296.0
16.686293820 17280.0
16.697160260 17558.0
16.708026700 17249.0
16.718893140 17266.0
16.729759580 17296.0
16.740626020 17430.0
16.751492460 17124.0
16.762358900 17574.0
16.773225340 17165.0
16.784091780 17368.0
16.794958220 17518.0
16.805824660 17232.0
16.816691100 17361.0
16.827557540 17155.0
16.838423980 17305.0
16.849290420 17150.0
16.860156860 17240.0
16.871023300 17229.0
16.881889740 17428.0
16.892756180 17452.0
16.903622620 17616.0
16.914489060 17237.0
16.925355500 17485.0
16.936221940 17111.0
16.947088380 17393.0
16.957954820 17395.0
16.968821260 17036.0
16.979687700 17145.0
16.990554140 17131.0
17.001420580 17165.0
17.012287020 17260.0
17.023153460 17257.0
17.034019900 17260.0
17.044886340 17543.0
17.055752780 17412.0
17.066619220 17365.0
17.077485660 17426.0
17.088352100 17314.0
17.099218540 17422.0
17.110084980 17266.0
17.120951420 17419.0
17.131817860 17328.0
17.142684300 17261.0
17.153550740 17256.0
17.164417180 17369.0
17.175283620 17312.0
17.186150060 17465.0
17.197016500 17000.0
17.207882940 17043.0
17.218749380 17240.0
17.229615820 17494.0
17.240482260 17582.0
17.251348700 17424.0
17.262215140 17228.0
17.273081580 17352.0
17.283948020 17399.0
17.294814460 17507.0
17.305680900 17725.0
17.316547340 17273.0
17.327413780 17534.0
17.338280220 17664.0
17.349146660 17328.0
17.360013100 17896.0
17.370879540 17548.0
17.381745980 17705.0
17.392612420 17445.0
17.403478860 17648.0
17.414345300 17747.0
17.425211740 17798.0
17.436078180 17831.0
17.446944620 17783.0
17.457811060 17825.0
17.468677500 18097.0
17.479543940 18030.0
17.490410380 18225.0
17.501276820 18206.0
17.512143260 18434.0
17.523009700 18618.0
17.533876140 18526.0
17.544742580 18963.0
17.555609020 18955.0
17.566475460 19239.0
17.577341900 19592.0
17.588208340 19749.0
17.599074780 20103.0
17.609941220 20831.0
17.620807660 20931.0
17.631674100 21419.0
17.642540540 22151.0
17.653406980 22657.0
17.664273420 23731.0
17.675139860 24610.0
17.686006300 25615.0
17.696872740 26448.0
17.707739180 27660.0
17.718605620 28787.0
17.729472060 30267.0
17.740338500 31473.0
17.751204940 32862.0
17.762071380 33308.0
17.772937820 34911.0
17.783804260 35492.0
17.794670700 36078.0
17.805537140 36605.0
17.816403580 36464.0
17.827270020 36578.0
17.838136460 36073.0
17.849002900 35759.0
17.859869340 34494.0
17.870735780 33563.0
17.881602220 32280.0
17.892468660 30958.0
17.903335100 29774.0
17.914201540 28259.0
17.925067980 26780.0
17.935934420 25344.0
17.946800860 24119.0
17.957667300 22802.0
17.968533740 22294.0
17.979400180 21294.0
17.990266620 20803.0
18.001133060 20145.0
18.011999500 19282.0
18.022865940 19266.0
18.033732380 18755.0
18.044598820 18368.0
18.055465260 18019.0
18.066331700 17905.0
18.077198140 17571.0
18.088064580 17445.0
18.098931020 17568.0
18.109797460 17438.0
18.120663900 17507.0
18.131530340 17342.0
18.142396780 17218.0
18.153263220 17345.0
18.164129660 17077.0
18.174996100 17194.0
18.185862540 17279.0
18.196728980 17220.0
18.207595420 17119.0
18.218461860 17169.0
18.229328300 17168.0
18.240194740 17080.0
18.251061180 16913.0
18.261927620 16956.0
18.272794060 16786.0
18.283660500 17073.0
18.294526940 17042.0
18.305393380 16985.0
18.316259820 16873.0
18.327126260 16893.0
18.337992700 17032.0
18.348859140 16758.0
18.359725580 17085.0
18.370592020 16787.0
18.381458460 16877.0
18.392324900 16683.0
18.403191340 16874.0
18.414057780 17025.0
18.424924220 17100.0
18.435790660 16797.0
18.446657100 16669.0
18.457523540 16780.0
18.468389980 16932.0
18.479256420 16936.0
18.490122860 16891.0
18.500989300 16917.0
18.511855740 16950.0
18.522722180 16936.0
18.533588620 16991.0
18.544455060 17037.0
18.555321500 16839.0
18.566187940 16736.0
18.577054380 16924.0
18.587920820 16739.0
18.598787260 16825.0
18.609653700 16625.0
18.620520140 16775.0
18.631386580 16922.0
18.642253020 16707.0
18.653119460 16680.0
18.663985900 16571.0
18.674852340 16770.0
18.685718780 16786.0
18.696585220 16621.0
18.707451660 16711.0
18.718318100 16707.0
18.729184540 16632.0
18.740050980 16747.0
18.750917420 16676.0
18.761783860 16636.0
18.772650300 16587.0
18.783516740 16534.0
18.794383180 16908.0
18.805249620 16670.0
18.816116060 16603.0
18.826982500 16727.0
18.837848940 16734.0
18.848715380 16595.0
18.859581820 16760.0
18.870448260 16619.0
18.881314700 16450.0
18.892181140 16600.0
18.903047580 16700.0
18.913914020 16769.0
18.924780460 16661.0
18.935646900 16599.0
18.946513340 16717.0
18.957379780 16750.0
18.968246220 16754.0
18.979112660 16727.0
18.989979100 16485.0
19.000845540 16686.0
19.011711980 16430.0
19.022578420 16561.0
19.033444860 16637.0
19.044311300 16868.0
19.055177740 16742.0
19.066044180 16617.0
19.076910620 16727.0
19.087777060 16821.0
19.098643500 16735.0
19.109509940 16555.0
19.120376380 16773.0
19.131242820 16613.0
19.142109260 16562.0
19.152975700 16631.0
19.163842140 16332.0
19.174708580 16749.0
19.185575020 16627.0
19.196441460 16687.0
19.207307900 16513.0
19.218174340 16648.0
19.229040780 16505.0
19.239907220 16371.0
19.250773660 16599.0
19.261640100 16471.0
19.272506540 16534.0
19.283372980 16450.0
19.294239420 16556.0
19.305105860 16369.0
19.315972300 16462.0
19.326838740 16422.0
19.337705180 16476.0
19.348571620 16397.0
19.359438060 16318.0
19.370304500 16541.0
19.381170940 16677.0
19.392037380 16481.0
19.402903820 16604.0
19.413770260 16510.0
19.424636700 16416.0
19.435503140 16463.0
19.446369580 16624.0
19.457236020 16558.0
19.468102460 16835.0
19.478968900 16420.0
19.489835340 16356.0
19.500701780 16521.0
19.511568220 16515.0
19.522434660 16521.0
19.533301100 16611.0
19.544167540 16469.0
19.555033980 16557.0
19.565900420 16534.0
19.576766860 16234.0
19.587633300 16666.0
19.598499740 16518.0
19.609366180 16447.0
19.620232620 16644.0
19.631099060 16494.0
19.641965500 16452.0
19.652831940 16401.0
19.663698380 16421.0
19.674564820 16189.0
19.685431260 16589.0
19.696297700 16543.0
19.707164140 16239.0
19.718030580 16457.0
19.728897020 16702.0
19.739763460 16634.0
19.750629900 16678.0
19.761496340 16570.0
19.772362780 16385.0
19.783229220 16457.0
19.794095660 16790.0
19.804962100 16690.0
19.815828540 16673.0
19.826694980 16614.0
19.837561420 16345.0
19.848427860 16469.0
19.859294300 16312.0
19.870160740 16355.0
19.881027180 16349.0
19.891893620 16535.0
19.902760060 16445.0
19.913626500 16339.0
19.924492940 16338.0
19.935359380 16323.0
19.946225820 16275.0
19.957092260 16489.0
19.967958700 16290.0
19.978825140 16492.0
19.989691580 16215.0
20.000558020 16507.0
20.011424460 16474.0
20.022290900 16329.0
20.033157340 16433.0
20.044023780 16245.0
20.054890220 16529.0
20.065756660 16399.0
20.076623100 16202.0
20.087489540 16359.0
20.098355980 16453.0
20.109222420 16505.0
20.120088860 16502.0
20.130955300 16333.0
20.141821740 16346.0
20.152688180 16408.0
20.163554620 16337.0
20.174421060 16201.0
20.185287500 16359.0
20.196153940 16694.0
20.207020380 16280.0
20.217886820 16426.0
20.228753260 16457.0
20.239619700 16480.0
20.250486140 16340.0
20.261352580 16374.0
20.272219020 16200.0
20.283085460 16274.0
20.293951900 16629.0
20.304818340 16577.0
20.315684780 16580.0
20.326551220 16303.0
20.337417660 16485.0
20.348284100 16359.0
20.359150540 16218.0
20.370016980 16173.0
20.380883420 16616.0
20.391749860 16573.0
20.402616300 16390.0
20.413482740 16405.0
20.424349180 16376.0
20.435215620 16190.0
20.446082060 16264.0
20.456948500 16179.0
20.467814940 16231.0
20.478681380 16159.0
20.489547820 16319.0
20.500414260 16448.0
20.511280700 16467.0
20.522147140 16344.0
20.533013580 16337.0
20.543880020 16582.0
20.554746460 16506.0
20.565612900 16423.0
20.576479340 16509.0
20.587345780 16210.0
20.598212220 16275.0
20.609078660 16573.0
20.619945100 16240.0
20.630811540 16393.0
20.641677980 16173.0
20.652544420 16288.0
20.663410860 16293.0
20.674277300 16510.0
20.685143740 16354.0
20.696010180 16357.0
20.706876620 16503.0
20.717743060 16242.0
20.728609500 16281.0
20.739475940 16168.0
20.750342380 16107.0
20.761208820 16448.0
20.772075260 16216.0
20.782941700 16486.0
20.793808140 16249.0
20.804674580 16280.0
20.815541020 16213.0
20.826407460 16306.0
20.837273900 16376.0
20.848140340 16015.0
20.859006780 16259.0
20.869873220 15991.0
20.880739660 16455.0
20.891606100 16042.0
20.902472540 16172.0
20.913338980 16264.0
20.924205420 16503.0
20.935071860 16126.0
20.945938300 16351.0
20.956804740 16274.0
20.967671180 16256.0
20.978537620 16614.0
20.989404060 16194.0
21.000270500 16127.0
21.011136940 16500.0
21.022003380 16134.0
21.032869820 16243.0
21.043736260 16195.0
21.054602700 16295.0
21.065469140 15970.0
21.076335580 16015.0
21.087202020 16118.0
21.098068460 16330.0
21.108934900 16496.0
21.119801340 16154.0
21.130667780 16309.0
21.141534220 16359.0
21.152400660 16280.0
21.163267100 15930.0
21.174133540 16461.0
21.184999980 16282.0
21.195866420 16366.0
21.206732860 16195.0
21.217599300 16180.0
21.228465740 16171.0
21.239332180 16253.0
21.250198620 16524.0
21.261065060 16189.0
21.271931500 16351.0
21.282797940 16244.0
21.293664380 16294.0
21.304530820 16404.0
21.315397260 16268.0
21.326263700 16409.0
21.337130140 16470.0
21.347996580 16462.0
21.358863020 16382.0
21.369729460 16307.0
21.380595900 16245.0
21.391462340 16268.0
21.402328780 16323.0
21.413195220 16343.0
21.424061660 16211.0
21.434928100 16283.0
21.445794540 16268.0
21.456660980 16640.0
21.467527420 16174.0
21.478393860 16412.0
21.489260300 16180.0
21.500126740 16324.0
21.510993180 16177.0
21.521859620 16314.0
21.532726060 16259.0
21.543592500 16302.0
21.554458940 16251.0
21.565325380 16265.0
21.576191820 16193.0
21.587058260 16167.0
21.597924700 16470.0
21.608791140 16231.0
21.619657580 16413.0
21.630524020 16101.0
21.641390460 16386.0
21.652256900 16359.0
21.663123340 15976.0
21.673989780 16253.0
21.684856220 16139.0
21.695722660 16292.0
21.706589100 16347.0
21.717455540 16342.0
21.728321980 16535.0
21.739188420 16224.0
21.750054860 16389.0
21.760921300 16271.0
21.771787740 16325.0
21.782654180 16124.0
21.793520620 16377.0
21.804387060 16174.0
21.815253500 16234.0
21.826119940 16337.0
21.836986380 16158.0
21.847852820 16082.0
21.858719260 16415.0
21.869585700 16399.0
21.880452140 16217.0
21.891318580 16475.0
21.902185020 16391.0
21.913051460 16164.0
21.923917900 16377.0
21.934784340 16270.0
21.945650780 16102.0
21.956517220 16067.0
21.967383660 16429.0
21.978250100 16248.0
21.989116540 16321.0
21.999982980 16482.0
22.010849420 16325.0
22.021715860 16288.0
22.032582300 16137.0
22.043448740 16445.0
22.054315180 16417.0
22.065181620 16420.0
22.076048060 16378.0
22.086914500 16264.0
22.097780940 16473.0
22.108647380 16221.0
22.119513820 16438.0
22.130380260 16587.0
22.141246700 16146.0
22.152113140 16437.0
22.162979580 16353.0
22.173846020 16460.0
22.184712460 16465.0
22.195578900 16629.0
22.206445340 16352.0
22.217311780 16351.0
22.228178220 16256.0
22.239044660 16428.0
22.249911100 16444.0
22.260777540 16513.0
22.271643980 16500.0
22.282510420 16588.0
22.293376860 16695.0
22.304243300 16680.0
22.315109740 16871.0
22.325976180 16893.0
22.336842620 16847.0
22.347709060 16783.0
22.358575500 16941.0
22.369441940 17011.0
22.380308380 17364.0
22.391174820 17447.0
22.402041260 17536.0
22.412907700 17959.0
22.423774140 18062.0
22.434640580 18368.0
22.445507020 19015.0
22.456373460 19419.0
22.467239900 19787.0
22.478106340 20427.0
22.488972780 21027.0
22.499839220 21373.0
22.510705660 22164.0
22.521572100 22648.0
22.532438540 23160.0
22.543304980 23546.0
22.554171420 23867.0
22.565037860 24030.0
22.575904300 24253.0
22.586770740 24234.0
22.597637180 23785.0
22.608503620 23870.0
22.619370060 23551.0
22.630236500 22916.0
22.641102940 22768.0
22.651969380 22151.0
22.662835820 21343.0
22.673702260 20884.0
22.684568700 20400.0
22.695435140 19719.0
22.706301580 19045.0
22.717168020 18730.0
22.728034460 18319.0
22.738900900 17781.0
22.749767340 17876.0
22.760633780 17032.0
22.771500220 17186.0
22.782366660 16819.0
22.793233100 16782.0
22.804099540 16465.0
22.814965980 16303.0
22.825832420 16621.0
22.836698860 16416.0
22.847565300 16285.0
22.858431740 16203.0
22.869298180 16310.0
22.880164620 16485.0
22.891031060 16334.0
22.901897500 16363.0
22.912763940 16320.0
22.923630380 16011.0
22.934496820 16294.0
22.945363260 16316.0
22.956229700 16032.0
22.967096140 16046.0
22.977962580 16325.0
22.988829020 16047.0
22.999695460 16181.0
23.010561900 16285.0
23.021428340 16231.0
23.032294780 16198.0
23.043161220 16335.0
23.054027660 16120.0
23.064894100 16356.0
23.075760540 16011.0
23.086626980 16171.0
23.097493420 16275.0
23.108359860 15953.0
23.119226300 15929.0
23.130092740 16039.0
23.140959180 15951.0
23.151825620 16132.0
23.162692060 15854.0
23.173558500 15947.0
23.184424940 16040.0
23.195291380 16059.0
23.206157820 15959.0
23.217024260 16026.0
23.227890700 16061.0
23.238757140 16019.0
23.249623580 16027.0
23.260490020 16263.0
23.271356460 15836.0
23.282222900 16153.0
23.293089340 15793.0
23.303955780 16017.0
23.314822220 15825.0
23.325688660 16332.0
23.336555100 16037.0
23.347421540 16167.0
23.358287980 16004.0
23.369154420 15862.0
23.380020860 16108.0
23.390887300 15833.0
23.401753740 15768.0
23.412620180 16028.0
23.423486620 15814.0
23.434353060 15920.0
23.445219500 15855.0
23.456085940 15966.0
23.466952380 15755.0
23.477818820 16038.0
23.488685260 15737.0
23.499551700 15889.0
23.510418140 16194.0
23.521284580 15930.0
23.532151020 15945.0
23.543017460 15887.0
23.553883900 15740.0
23.564750340 15974.0
23.575616780 15816.0
23.586483220 16009.0
23.597349660 15853.0
23.608216100 16175.0
23.619082540 16019.0
23.629948980 16165.0
23.640815420 16012.0
23.651681860 16093.0
23.662548300 15682.0
23.673414740 16030.0
23.684281180 15953.0
23.695147620 15809.0
23.706014060 15888.0
23.716880500 15956.0
23.727746940 16060.0
23.738613380 15810.0
23.749479820 15921.0
23.760346260 15825.0
23.771212700 15715.0
23.782079140 15907.0
23.792945580 16036.0
23.803812020 15983.0
23.814678460 15875.0
23.825544900 16036.0
23.836411340 16006.0
23.847277780 15802.0
23.858144220 15758.0
23.869010660 15698.0
23.879877100 15878.0
23.890743540 15797.0
23.901609980 15984.0
23.912476420 15957.0
23.923342860 15957.0
23.934209300 15987.0
23.945075740 15911.0
23.955942180 15878.0
23.966808620 15965.0
23.977675060 15826.0
23.988541500 15695.0
23.999407940 15567.0
24.010274380 15747.0
24.021140820 15933.0
24.032007260 15990.0
24.042873700 15828.0
24.053740140 15868.0
24.064606580 16057.0
24.075473020 15694.0
24.086339460 16056.0
24.097205900 16042.0
24.108072340 15882.0
24.118938780 16002.0
24.129805220 15941.0
24.140671660 15852.0
24.151538100 15749.0
24.162404540 15831.0
24.173270980 16209.0
24.184137420 16099.0
24.195003860 16008.0
24.205870300 15916.0
24.216736740 16002.0
24.227603180 15957.0
24.238469620 15983.0
24.249336060 15904.0
24.260202500 16051.0
24.271068940 15984.0
24.281935380 15982.0
24.292801820 15968.0
24.303668260 16228.0
24.314534700 15843.0
24.325401140 16108.0
24.336267580 15884.0
24.347134020 15825.0
24.358000460 16154.0
24.368866900 16028.0
24.379733340 16241.0
24.390599780 15965.0
24.401466220 16364.0
24.412332660 16202.0
24.423199100 16085.0
24.434065540 16310.0
24.444931980 16216.0
24.455798420 16447.0
24.466664860 16433.0
24.477531300 16504.0
24.488397740 16279.0
24.499264180 16415.0
24.510130620 16424.0
24.520997060 16353.0
24.531863500 16277.0
24.542729940 16550.0
24.553596380 16379.0
24.564462820 16682.0
24.575329260 16166.0
24.586195700 16737.0
24.597062140 16602.0
24.607928580 16806.0
24.618795020 16891.0
24.629661460 17144.0
24.640527900 17201.0
24.651394340 17026.0
24.662260780 17230.0
24.673127220 17445.0
24.683993660 17400.0
24.694860100 17557.0
24.705726540 17778.0
24.716592980 17794.0
24.727459420 17987.0
24.738325860 17843.0
24.749192300 17752.0
24.760058740 17946.0
24.770925180 17544.0
24.781791620 18078.0
24.792658060 17861.0
24.803524500 17767.0
24.814390940 17555.0
24.825257380 17549.0
24.836123820 17651.0
24.846990260 17559.0
24.857856700 17574.0
24.868723140 17543.0
24.879589580 17894.0
24.890456020 17520.0
24.901322460 17656.0
24.912188900 17547.0
24.923055340 18033.0
24.933921780 18032.0
24.944788220 18097.0
24.955654660 18177.0
24.966521100 18699.0
24.977387540 19292.0
24.988253980 19493.0
24.999120420 20056.0
25.009986860 20325.0
25.020853300 21458.0
25.031719740 22096.0
25.042586180 22912.0
25.053452620 23692.0
25.064319060 25084.0
25.075185500 26167.0
25.086051940 27730.0
25.096918380 28881.0
25.107784820 30792.0
25.118651260 31917.0
25.129517700 33167.0
25.140384140 34513.0
25.151250580 35870.0
25.162117020 36551.0
25.172983460 37985.0
25.183849900 38328.0
25.194716340 39320.0
25.205582780 39388.0
25.216449220 39936.0
25.227315660 39702.0
25.238182100 40058.0
25.249048540 40154.0
25.259914980 40152.0
25.270781420 40020.0
25.281647860 39974.0
25.292514300 38848.0
25.303380740 38731.0
25.314247180 38288.0
25.325113620 37620.0
25.335980060 36819.0
25.346846500 36028.0
25.357712940 34817.0
25.368579380 33528.0
25.379445820 31932.0
25.390312260 30904.0
25.401178700 29676.0
25.412045140 28566.0
25.422911580 26670.0
25.433778020 25434.0
25.444644460 24359.0
25.455510900 22797.0
25.466377340 21760.0
25.477243780 20882.0
25.488110220 20106.0
25.498976660 19626.0
25.509843100 18873.0
25.520709540 18556.0
25.531575980 18126.0
25.542442420 17802.0
25.553308860 17467.0
25.564175300 17390.0
25.575041740 17054.0
25.585908180 17106.0
25.596774620 16903.0
25.607641060 16813.0
25.618507500 16826.0
25.629373940 16789.0
25.640240380 16497.0
25.651106820 16734.0
25.661973260 16541.0
25.672839700 16540.0
25.683706140 16615.0
25.694572580 16695.0
25.705439020 16687.0
25.716305460 16417.0
25.727171900 16622.0
25.738038340 16475.0
25.748904780 16384.0
25.759771220 16680.0
25.770637660 16526.0
25.781504100 16602.0
25.792370540 16513.0
25.803236980 16557.0
25.814103420 16733.0
25.824969860 16622.0
25.835836300 16727.0
25.846702740 16707.0
25.857569180 16823.0
25.868435620 16877.0
25.879302060 17074.0
25.890168500 17333.0
25.901034940 17305.0
25.911901380 17313.0
25.922767820 17370.0
25.933634260 17697.0
25.944500700 17718.0
25.955367140 18077.0
25.966233580 17978.0
25.977100020 18132.0
25.987966460 18337.0
25.998832900 18242.0
26.009699340 18401.0
26.020565780 18719.0
26.031432220 18382.0
26.042298660 18349.0
26.053165100 18329.0
26.064031540 18367.0
26.074897980 18165.0
26.085764420 18131.0
26.096630860 18055.0
26.107497300 17925.0
26.118363740 17882.0
26.129230180 17729.0
26.140096620 17605.0
26.150963060 17733.0
26.161829500 17460.0
26.172695940 17421.0
26.183562380 17349.0
26.194428820 17676.0
26.205295260 17200.0
26.216161700 17515.0
26.227028140 17351.0
26.237894580 17496.0
26.248761020 17434.0
26.259627460 17616.0
26.270493900 17538.0
26.281360340 17890.0
26.292226780 18003.0
26.303093220 17862.0
26.313959660 18034.0
26.324826100 18284.0
26.335692540 18301.0
26.346558980 18603.0
26.357425420 18764.0
26.368291860 19334.0
26.379158300 18982.0
26.390024740 19297.0
26.400891180 19450.0
26.411757620 20040.0
26.422624060 19818.0
26.433490500 20187.0
26.444356940 20677.0
26.455223380 21319.0
26.466089820 21731.0
26.476956260 22533.0
26.487822700 22978.0
26.498689140 23803.0
26.509555580 24179.0
26.520422020 25361.0
26.531288460 26709.0
26.542154900 27577.0
26.553021340 28835.0
26.563887780 30630.0
26.574754220 31921.0
26.585620660 33374.0
26.596487100 34788.0
26.607353540 37052.0
26.618219980 38604.0
26.629086420 40554.0
26.639952860 42453.0
26.650819300 44241.0
26.661685740 45872.0
26.672552180 47521.0
26.683418620 48231.0
26.694285060 49532.0
26.705151500 49898.0
26.716017940 50012.0
26.726884380 50114.0
26.737750820 49668.0
26.748617260 48022.0
26.759483700 47416.0
26.770350140 45857.0
26.781216580 44265.0
26.792083020 42609.0
26.802949460 40938.0
26.813815900 39009.0
26.824682340 37098.0
26.835548780 35411.0
26.846415220 33876.0
26.857281660 32155.0
26.868148100 30326.0
26.879014540 29065.0
26.889880980 28391.0
26.900747420 26949.0
26.911613860 25921.0
26.922480300 25296.0
26.933346740 24025.0
26.944213180 23471.0
26.955079620 22831.0
26.965946060 22308.0
26.976812500 21919.0
26.987678940 21403.0
26.998545380 20771.0
27.009411820 20902.0
27.020278260 20543.0
27.031144700 20294.0
27.042011140 19626.0
27.052877580 19703.0
27.063744020 19348.0
27.074610460 19348.0
27.085476900 18949.0
27.096343340 18538.0
27.107209780 18202.0
27.118076220 18048.0
27.128942660 18045.0
27.139809100 17673.0
27.150675540 17936.0
27.161541980 17480.0
27.172408420 17415.0
27.183274860 17500.0
27.194141300 17484.0
27.205007740 17089.0
27.215874180 16912.0
27.226740620 17048.0
27.237607060 16907.0
27.248473500 16732.0
27.259339940 16749.0
27.270206380 16340.0
27.281072820 16689.0
27.291939260 16555.0
27.302805700 16597.0
27.313672140 16110.0
27.324538580 16393.0
27.335405020 16067.0
27.346271460 16265.0
27.357137900 16241.0
27.368004340 16246.0
27.378870780 16039.0
27.389737220 15995.0
27.400603660 15955.0
27.411470100 15741.0
27.422336540 15804.0
27.433202980 15609.0
27.444069420 15734.0
27.454935860 15801.0
27.465802300 15832.0
27.476668740 15872.0
27.487535180 15730.0
27.498401620 15660.0
27.509268060 15433.0
27.520134500 15584.0
27.531000940 15323.0
27.541867380 15230.0
27.552733820 15345.0
27.563600260 15698.0
27.574466700 15381.0
27.585333140 15655.0
27.596199580 15300.0
27.607066020 15309.0
27.617932460 15365.0
27.628798900 15124.0
27.639665340 15233.0
27.650531780 15090.0
27.661398220 15287.0
27.672264660 15535.0
27.683131100 15146.0
27.693997540 15308.0
27.704863980 15280.0
27.715730420 15062.0
27.726596860 15193.0
27.737463300 15004.0
27.748329740 15336.0
27.759196180 14941.0
27.770062620 15118.0
27.780929060 14980.0
27.791795500 15216.0
27.802661940 15252.0
27.813528380 15241.0
27.824394820 14961.0
27.835261260 14900.0
27.846127700 14970.0
27.856994140 15046.0
27.867860580 14925.0
27.878727020 15035.0
27.889593460 14982.0
27.900459900 14781.0
27.911326340 15202.0
27.922192780 15122.0
27.933059220 15065.0
27.943925660 15056.0
27.954792100 14933.0
27.965658540 15076.0
27.976524980 14879.0
27.987391420 14870.0
27.998257860 15153.0
28.009124300 14749.0
28.019990740 15185.0
28.030857180 14717.0
28.041723620 14933.0
28.052590060 14633.0
28.063456500 14866.0
28.074322940 14791.0
28.085189380 14976.0
28.096055820 14677.0
28.106922260 15098.0
28.117788700 14898.0
28.128655140 15032.0
28.139521580 14742.0
28.150388020 15017.0
28.161254460 14925.0
28.172120900 14813.0
28.182987340 14686.0
28.193853780 15075.0
28.204720220 14874.0
28.215586660 15120.0
28.226453100 15153.0
28.237319540 15197.0
28.248185980 15080.0
28.259052420 15089.0
28.269918860 15308.0
28.280785300 15607.0
28.291651740 15289.0
28.302518180 15798.0
28.313384620 15627.0
28.324251060 15889.0
28.335117500 15801.0
28.345983940 15884.0
28.356850380 15947.0
28.367716820 15608.0
28.378583260 15805.0
28.389449700 15669.0
28.400316140 15614.0
28.411182580 15860.0
28.422049020 15654.0
28.432915460 15528.0
28.443781900 15656.0
28.454648340 15521.0
28.465514780 15621.0
28.476381220 15473.0
28.487247660 15308.0
28.498114100 15369.0
28.508980540 15254.0
28.519846980 15103.0
28.530713420 15119.0
28.541579860 15462.0
28.552446300 15316.0
28.563312740 15330.0
28.574179180 15194.0
28.585045620 15545.0
28.595912060 15433.0
28.606778500 15652.0
28.617644940 15722.0
28.628511380 15789.0
28.639377820 16359.0
28.650244260 16716.0
28.661110700 16854.0
28.671977140 17494.0
28.682843580 17867.0
28.693710020 18597.0
28.704576460 18553.0
28.715442900 19471.0
28.726309340 20082.0
28.737175780 20773.0
28.748042220 20975.0
28.758908660 21796.0
28.769775100 22021.0
28.780641540 22815.0
28.791507980 23017.0
28.802374420 23453.0
28.813240860 23603.0
28.824107300 23518.0
28.834973740 23464.0
28.845840180 23397.0
28.856706620 23171.0
28.867573060 22695.0
28.878439500 22379.0
28.889305940 21730.0
28.900172380 21042.0
28.911038820 20678.0
28.921905260 19965.0
28.932771700 19506.0
28.943638140 18663.0
28.954504580 18115.0
28.965371020 17585.0
28.976237460 17112.0
28.987103900 16834.0
28.997970340 16114.0
29.008836780 16011.0
29.019703220 15765.0
29.030569660 15394.0
29.041436100 15289.0
29.052302540 14949.0
29.063168980 14743.0
29.074035420 14644.0
29.084901860 14599.0
29.095768300 14617.0
29.106634740 14721.0
29.117501180 14300.0
29.128367620 14341.0
29.139234060 14392.0
29.150100500 14593.0
29.160966940 14130.0
29.171833380 14450.0
29.182699820 14315.0
29.193566260 14341.0
29.204432700 14080.0
29.215299140 14546.0
29.226165580 14282.0
29.237032020 14286.0
29.247898460 14250.0
29.258764900 14558.0
29.269631340 14176.0
29.280497780 14713.0
29.291364220 14796.0
29.302230660 14753.0
29.313097100 15015.0
29.323963540 15158.0
29.334829980 15347.0
29.345696420 15537.0
29.356562860 15380.0
29.367429300 16343.0
29.378295740 16533.0
29.389162180 17369.0
29.400028620 17901.0
29.410895060 18510.0
29.421761500 19109.0
29.432627940 19966.0
29.443494380 20516.0
29.454360820 21601.0
29.465227260 22176.0
29.476093700 22925.0
29.486960140 23209.0
29.497826580 23772.0
29.508693020 24330.0
29.519559460 24368.0
29.530425900 23916.0
29.541292340 23751.0
29.552158780 23004.0
29.563025220 22673.0
29.573891660 21739.0
29.584758100 20911.0
29.595624540 20429.0
29.606490980 19706.0
29.617357420 18498.0
29.628223860 17944.0
29.639090300 17312.0
29.649956740 16539.0
29.660823180 16087.0
29.671689620 15634.0
29.682556060 15053.0
29.693422500 15004.0
29.704288940 14600.0
29.715155380 14240.0
29.726021820 13957.0
29.736888260 14135.0
29.747754700 13858.0
29.758621140 14005.0
29.769487580 13659.0
29.780354020 13556.0
29.791220460 13617.0
29.802086900 13639.0
29.812953340 13684.0
29.823819780 13737.0
29.834686220 13641.0
29.845552660 13819.0
29.856419100 13434.0
29.867285540 13491.0
29.878151980 13641.0
29.889018420 13553.0
29.899884860 13181.0
29.910751300 13526.0
29.921617740 13201.0
29.932484180 13491.0
29.943350620 13220.0
29.954217060 13478.0
29.965083500 13403.0
29.975949940 13456.0
29.986816380 13331.0
29.997682820 13470.0
30.008549260 13488.0
30.019415700 13265.0
30.030282140 13293.0
30.041148580 13253.0
30.052015020 13429.0
30.062881460 13287.0
30.073747900 13290.0
30.084614340 13179.0
30.095480780 13221.0
30.106347220 13169.0
30.117213660 13154.0
30.128080100 13263.0
30.138946540 13147.0
30.149812980 13295.0
30.160679420 13242.0
30.171545860 13106.0
30.182412300 13208.0
30.193278740 13279.0
30.204145180 13168.0
30.215011620 13087.0
30.225878060 13186.0
30.236744500 13103.0
30.247610940 13087.0
30.258477380 13134.0
30.269343820 13074.0
30.280210260 13247.0
30.291076700 13089.0
30.301943140 13030.0
30.312809580 13204.0
30.323676020 13045.0
30.334542460 13151.0
30.345408900 13147.0
30.356275340 13110.0
30.367141780 12856.0
30.378008220 12987.0
30.388874660 13183.0
30.399741100 12874.0
30.410607540 13261.0
30.421473980 13010.0
30.432340420 13115.0
30.443206860 12914.0
30.454073300 13259.0
30.464939740 12975.0
30.475806180 12800.0
30.486672620 12964.0
30.497539060 13137.0
30.508405500 12962.0
30.519271940 12708.0
30.530138380 12942.0
30.541004820 13210.0
30.551871260 13051.0
30.562737700 13141.0
30.573604140 12553.0
30.584470580 13113.0
30.595337020 13117.0
30.606203460 13130.0
30.617069900 13025.0
30.627936340 12955.0
30.638802780 12847.0
30.649669220 12838.0
30.660535660 12842.0
30.671402100 12757.0
30.682268540 13020.0
30.693134980 12935.0
30.704001420 12929.0
30.714867860 13059.0
30.725734300 12884.0
30.736600740 12829.0
30.747467180 13072.0
30.758333620 12836.0
30.769200060 12659.0
30.780066500 12869.0
30.790932940 12754.0
30.801799380 12816.0
30.812665820 12802.0
30.823532260 12940.0
30.834398700 12738.0
30.845265140 12864.0
30.856131580 12837.0
30.866998020 12982.0
30.877864460 12974.0
30.888730900 12835.0
30.899597340 12694.0
30.910463780 12879.0
30.921330220 12748.0
30.932196660 12817.0
30.943063100 12797.0
30.953929540 12695.0
30.964795980 12809.0
30.975662420 12843.0
30.986528860 12771.0
30.997395300 12774.0
31.008261740 12785.0
31.019128180 13048.0
31.029994620 12474.0
31.040861060 12695.0
31.051727500 12753.0
31.062593940 12758.0
31.073460380 12728.0
31.084326820 12863.0
31.095193260 12699.0
31.106059700 12809.0
31.116926140 12569.0
31.127792580 12800.0
31.138659020 12594.0
31.149525460 12702.0
31.160391900 12581.0
31.171258340 12447.0
31.182124780 12733.0
31.192991220 12500.0
31.203857660 12650.0
31.214724100 12578.0
31.225590540 12735.0
31.236456980 12801.0
31.247323420 12709.0
31.258189860 12759.0
31.269056300 12690.0
31.279922740 12971.0
31.290789180 12603.0
31.301655620 12828.0
31.312522060 12887.0
31.323388500 12914.0
31.334254940 12667.0
31.345121380 12948.0
31.355987820 12840.0
31.366854260 12922.0
31.377720700 12832.0
31.388587140 12602.0
31.399453580 12899.0
31.410320020 13200.0
31.421186460 12796.0
31.432052900 12763.0
31.442919340 12858.0
31.453785780 12794.0
31.464652220 12835.0
31.475518660 12895.0
31.486385100 12686.0
31.497251540 12660.0
31.508117980 12637.0
31.518984420 12811.0
31.529850860 12569.0
31.540717300 12800.0
31.551583740 12594.0
31.562450180 12661.0
31.573316620 12512.0
31.584183060 12507.0
31.595049500 12432.0
31.605915940 12439.0
31.616782380 12542.0
31.627648820 12445.0
31.638515260 12484.0
31.649381700 12543.0
31.660248140 12501.0
31.671114580 12528.0
31.681981020 12333.0
31.692847460 12318.0
31.703713900 12430.0
31.714580340 12683.0
31.725446780 12121.0
31.736313220 12489.0
31.747179660 12148.0
31.758046100 12364.0
31.768912540 12389.0
31.779778980 12502.0
31.790645420 12263.0
31.801511860 12435.0
31.812378300 12550.0
31.823244740 12564.0
31.834111180 12491.0
31.844977620 12208.0
31.855844060 12265.0
31.866710500 12385.0
31.877576940 12473.0
31.888443380 12384.0
31.899309820 12324.0
31.910176260 12460.0
31.921042700 12268.0
31.931909140 12366.0
31.942775580 12469.0
31.953642020 12371.0
31.964508460 12165.0
31.975374900 12456.0
31.986241340 12508.0
31.997107780 12277.0
32.007974220 12358.0
32.018840660 12491.0
32.029707100 12179.0
32.040573540 12506.0
32.051439980 12330.0
32.062306420 12202.0
32.073172860 12142.0
32.084039300 12188.0
32.094905740 12265.0
32.105772180 12488.0
32.116638620 12353.0
32.127505060 12241.0
32.138371500 12062.0
32.149237940 12261.0
32.160104380 12370.0
32.170970820 12120.0
32.181837260 12311.0
32.192703700 12426.0
32.203570140 12132.0
32.214436580 12183.0
32.225303020 12382.0
32.236169460 12409.0
32.247035900 12212.0
32.257902340 12450.0
32.268768780 12290.0
32.279635220 12463.0
32.290501660 12143.0
32.301368100 12366.0
32.312234540 12329.0
32.323100980 12403.0
32.333967420 12232.0
32.344833860 12365.0
32.355700300 12238.0
32.366566740 12298.0
32.377433180 12531.0
32.388299620 12623.0
32.399166060 12643.0
32.410032500 12708.0
32.420898940 12668.0
32.431765380 12910.0
32.442631820 12805.0
32.453498260 13112.0
32.464364700 13179.0
32.475231140 13458.0
32.486097580 13701.0
32.496964020 14469.0
32.507830460 14447.0
32.518696900 14927.0
32.529563340 15747.0
32.540429780 16371.0
32.551296220 16992.0
32.562162660 17762.0
32.573029100 18672.0
32.583895540 19806.0
32.594761980 20093.0
32.605628420 20974.0
32.616494860 21455.0
32.627361300 22220.0
32.638227740 22428.0
32.649094180 22706.0
32.659960620 22597.0
32.670827060 22366.0
32.681693500 22027.0
32.692559940 21677.0
32.703426380 20908.0
32.714292820 20322.0
32.725159260 19560.0
32.736025700 19212.0
32.746892140 17860.0
32.757758580 17215.0
32.768625020 16310.0
32.779491460 15701.0
32.790357900 15118.0
32.801224340 14530.0
32.812090780 14241.0
32.822957220 13685.0
32.833823660 13182.0
32.844690100 13186.0
32.855556540 12773.0
32.866422980 12672.0
32.877289420 12359.0
32.888155860 12547.0
32.899022300 12535.0
32.909888740 12130.0
32.920755180 12401.0
32.931621620 12043.0
32.942488060 12301.0
32.953354500 12245.0
32.964220940 12206.0
32.975087380 12107.0
32.985953820 11981.0
32.996820260 12150.0
33.007686700 12071.0
33.018553140 12091.0
33.029419580 12163.0
33.040286020 12061.0
33.051152460 12325.0
33.062018900 12276.0
33.072885340 12258.0
33.083751780 12312.0
33.094618220 12433.0
33.105484660 12539.0
33.116351100 12466.0
33.127217540 12624.0
33.138083980 12601.0
33.148950420 12425.0
33.159816860 12289.0
33.170683300 12744.0
33.181549740 12604.0
33.192416180 12530.0
33.203282620 12392.0
33.214149060 12361.0
33.225015500 12409.0
33.235881940 12416.0
33.246748380 12278.0
33.257614820 12383.0
33.268481260 12390.0
33.279347700 12291.0
33.290214140 12121.0
33.301080580 12104.0
33.311947020 12151.0
33.322813460 12278.0
33.333679900 12266.0
33.344546340 12172.0
33.355412780 12260.0
33.366279220 12458.0
33.377145660 11980.0
33.388012100 12378.0
33.398878540 12135.0
33.409744980 12419.0
33.420611420 12566.0
33.431477860 12432.0
33.442344300 12563.0
33.453210740 12732.0
33.464077180 12680.0
33.474943620 12909.0
33.485810060 13087.0
33.496676500 13119.0
33.507542940 13155.0
33.518409380 13419.0
33.529275820 13460.0
33.540142260 14126.0
33.551008700 14204.0
33.561875140 14538.0
33.572741580 15087.0
33.583608020 15579.0
33.594474460 16065.0
33.605340900 16627.0
33.616207340 17106.0
33.627073780 17615.0
33.637940220 18308.0
33.648806660 18658.0
33.659673100 18884.0
33.670539540 19672.0
33.681405980 19832.0
33.692272420 20177.0
33.703138860 20219.0
33.714005300 20536.0
33.724871740 20744.0
33.735738180 21460.0
33.746604620 20943.0
33.757471060 21522.0
33.768337500 21971.0
33.779203940 22177.0
33.790070380 22982.0
33.800936820 23503.0
33.811803260 24082.0
33.822669700 24654.0
33.833536140 25267.0
33.844402580 25826.0
33.855269020 26468.0
33.866135460 27038.0
33.877001900 27150.0
33.887868340 27153.0
33.898734780 27658.0
33.909601220 27366.0
33.920467660 27414.0
33.931334100 27309.0
33.942200540 26415.0
33.953066980 26310.0
33.963933420 25447.0
33.974799860 25378.0
33.985666300 24158.0
33.996532740 23509.0
34.007399180 22594.0
34.018265620 21698.0
34.029132060 20950.0
34.039998500 20063.0
34.050864940 19605.0
34.061731380 18448.0
34.072597820 18103.0
34.083464260 17608.0
34.094330700 16959.0
34.105197140 16495.0
34.116063580 15982.0
34.126930020 15552.0
34.137796460 15292.0
34.148662900 14940.0
34.159529340 14754.0
34.170395780 14297.0
34.181262220 14014.0
34.192128660 13855.0
34.202995100 13808.0
34.213861540 13569.0
34.224727980 13315.0
34.235594420 13219.0
34.246460860 12722.0
34.257327300 12878.0
34.268193740 12829.0
34.279060180 12625.0
34.289926620 12142.0
34.300793060 12459.0
34.311659500 12382.0
34.322525940 12356.0
34.333392380 12340.0
34.344258820 11955.0
34.355125260 12285.0
34.365991700 12088.0
34.376858140 12151.0
34.387724580 11988.0
34.398591020 11877.0
34.409457460 12153.0
34.420323900 11950.0
34.431190340 11944.0
34.442056780 11869.0
34.452923220 11932.0
34.463789660 12011.0
34.474656100 12261.0
34.485522540 12124.0
34.496388980 12213.0
34.507255420 12117.0
34.518121860 12564.0
34.528988300 12770.0
34.539854740 12385.0
34.550721180 12824.0
34.561587620 13026.0
34.572454060 13366.0
34.583320500 13318.0
34.594186940 13264.0
34.605053380 13496.0
34.615919820 13498.0
34.626786260 13426.0
34.637652700 13700.0
34.648519140 13716.0
34.659385580 13571.0
34.670252020 13310.0
34.681118460 13064.0
34.691984900 13007.0
34.702851340 12969.0
34.713717780 12764.0
34.724584220 12412.0
34.735450660 12289.0
34.746317100 12271.0
34.757183540 12015.0
34.768049980 11780.0
34.778916420 11485.0
34.789782860 11334.0
34.800649300 11310.0
34.811515740 11113.0
34.822382180 10925.0
34.833248620 10947.0
34.844115060 10975.0
34.854981500 10846.0
34.865847940 10650.0
34.876714380 10784.0
34.887580820 10738.0
34.898447260 10776.0
34.909313700 10676.0
34.920180140 10653.0
34.931046580 10623.0
34.941913020 10592.0
34.952779460 10780.0
34.963645900 10682.0
34.974512340 10620.0
34.985378780 10670.0
34.996245220 10707.0
35.007111660 10501.0
35.017978100 10676.0
35.028844540 10433.0
35.039710980 10632.0
35.050577420 10637.0
35.061443860 10544.0
35.072310300 10472.0
35.083176740 10597.0
35.094043180 10540.0
35.104909620 10513.0
35.115776060 10516.0
35.126642500 10511.0
35.137508940 10492.0
35.148375380 10636.0
35.159241820 10382.0
35.170108260 10383.0
35.180974700 10363.0
35.191841140 10491.0
35.202707580 10610.0
35.213574020 10288.0
35.224440460 10399.0
35.235306900 10357.0
35.246173340 10356.0
35.257039780 10351.0
35.267906220 10503.0
35.278772660 10290.0
35.289639100 10405.0
35.300505540 10289.0
35.311371980 10429.0
35.322238420 10516.0
35.333104860 10333.0
35.343971300 10493.0
35.354837740 10387.0
35.365704180 10362.0
35.376570620 10422.0
35.387437060 10580.0
35.398303500 10338.0
35.409169940 10343.0
35.420036380 10351.0
35.430902820 10275.0
35.441769260 10374.0
35.452635700 10332.0
35.463502140 10239.0
35.474368580 10285.0
35.485235020 10463.0
35.496101460 10383.0
35.506967900 10453.0
35.517834340 10439.0
35.528700780 10434.0
35.539567220 10632.0
35.550433660 10362.0
35.561300100 10738.0
35.572166540 10676.0
35.583032980 10676.0
35.593899420 10675.0
35.604765860 10890.0
35.615632300 10889.0
35.626498740 11201.0
35.637365180 11083.0
35.648231620 11270.0
35.659098060 11843.0
35.669964500 11912.0
35.680830940 12413.0
35.691697380 12855.0
35.702563820 13327.0
35.713430260 13742.0
35.724296700 14452.0
35.735163140 14861.0
35.746029580 15632.0
35.756896020 16408.0
35.767762460 17096.0
35.778628900 17811.0
35.789495340 18118.0
35.800361780 18761.0
35.811228220 19169.0
35.822094660 19440.0
35.832961100 19556.0
35.843827540 19808.0
35.854693980 19945.0
35.865560420 19671.0
35.876426860 19386.0
35.887293300 19273.0
35.898159740 18762.0
35.909026180 18387.0
35.919892620 18066.0
35.930759060 17507.0
35.941625500 17167.0
35.952491940 16549.0
35.963358380 16110.0
35.974224820 15619.0
35.985091260 15115.0
35.995957700 14728.0
36.006824140 14251.0
36.017690580 14052.0
36.028557020 13622.0
36.039423460 13219.0
36.050289900 12693.0
36.061156340 12490.0
36.072022780 12429.0
36.082889220 11917.0
36.093755660 11648.0
36.104622100 11499.0
36.115488540 11232.0
36.126354980 11080.0
36.137221420 10787.0
36.148087860 10875.0
36.158954300 10540.0
36.169820740 10323.0
36.180687180 10255.0
36.191553620 10233.0
36.202420060 10054.0
36.213286500 10030.0
36.224152940 9909.0
36.235019380 10019.0
36.245885820 9965.0
36.256752260 9921.0
36.267618700 10038.0
36.278485140 10014.0
36.289351580 9810.0
36.300218020 9842.0
36.311084460 9702.0
36.321950900 9800.0
36.332817340 9672.0
36.343683780 9818.0
36.354550220 9828.0
36.365416660 9718.0
36.376283100 9606.0
36.387149540 9793.0
36.398015980 9731.0
36.408882420 9754.0
36.419748860 9597.0
36.430615300 9859.0
36.441481740 9776.0
36.452348180 9548.0
36.463214620 9724.0
36.474081060 9708.0
36.484947500 9585.0
36.495813940 9554.0
36.506680380 9563.0
36.517546820 9713.0
36.528413260 9703.0
36.539279700 9611.0
36.550146140 9838.0
36.561012580 9640.0
36.571879020 9792.0
36.582745460 9692.0
36.593611900 9704.0
36.604478340 9649.0
36.615344780 9791.0
36.626211220 9627.0
36.637077660 9642.0
36.647944100 9526.0
36.658810540 9855.0
36.669676980 9757.0
36.680543420 9722.0
36.691409860 9644.0
36.702276300 9693.0
36.713142740 9561.0
36.724009180 9655.0
36.734875620 9489.0
36.745742060 9563.0
36.756608500 9823.0
36.767474940 9897.0
36.778341380 9757.0
36.789207820 9583.0
36.800074260 9529.0
36.810940700 9577.0
36.821807140 9577.0
36.832673580 9511.0
36.843540020 9458.0
36.854406460 9590.0
36.865272900 9767.0
36.876139340 9692.0
36.887005780 9610.0
36.897872220 9479.0
36.908738660 9721.0
36.919605100 9717.0
36.930471540 9468.0
36.941337980 9611.0
36.952204420 9600.0
36.963070860 9628.0
36.973937300 9510.0
36.984803740 9884.0
36.995670180 9561.0
37.006536620 9717.0
37.017403060 9606.0
37.028269500 9692.0
37.039135940 9644.0
37.050002380 9510.0
37.060868820 9497.0
37.071735260 9463.0
37.082601700 9497.0
37.093468140 9739.0
37.104334580 9615.0
37.115201020 9889.0
37.126067460 9497.0
37.136933900 9878.0
37.147800340 9798.0
37.158666780 9966.0
37.169533220 9947.0
37.180399660 10028.0
37.191266100 10092.0
37.202132540 10170.0
37.212998980 10408.0
37.223865420 10434.0
37.234731860 10285.0
37.245598300 10758.0
37.256464740 10938.0
37.267331180 11049.0
37.278197620 11288.0
37.289064060 11372.0
37.299930500 11458.0
37.310796940 11622.0
37.321663380 12018.0
37.332529820 11964.0
37.343396260 11953.0
37.354262700 11854.0
37.365129140 11910.0
37.375995580 11921.0
37.386862020 11910.0
37.397728460 11857.0
37.408594900 11652.0
37.419461340 11870.0
37.430327780 11232.0
37.441194220 11418.0
37.452060660 10893.0
37.462927100 11196.0
37.473793540 11035.0
37.484659980 11205.0
37.495526420 10952.0
37.506392860 11064.0
37.517259300 10973.0
37.528125740 11045.0
37.538992180 11004.0
37.549858620 10928.0
37.560725060 11085.0
37.571591500 11252.0
37.582457940 11230.0
37.593324380 11467.0
37.604190820 11726.0
37.615057260 11661.0
37.625923700 11986.0
37.636790140 12125.0
37.647656580 12271.0
37.658523020 12719.0
37.669389460 12923.0
37.680255900 13600.0
37.691122340 13847.0
37.701988780 14389.0
37.712855220 14850.0
37.723721660 15954.0
37.734588100 16283.0
37.745454540 17459.0
37.756320980 18593.0
37.767187420 19803.0
37.778053860 21308.0
37.788920300 22302.0
37.799786740 24184.0
37.810653180 25882.0
37.821519620 27624.0
37.832386060 29608.0
37.843252500 31608.0
37.854118940 33332.0
37.864985380 34762.0
37.875851820 36450.0
37.886718260 38245.0
37.897584700 39518.0
37.908451140 39413.0
37.919317580 40870.0
37.930184020 40600.0
37.941050460 40795.0
37.951916900 40541.0
37.962783340 40009.0
37.973649780 39264.0
37.984516220 38313.0
37.995382660 37337.0
38.006249100 36047.0
38.017115540 34340.0
38.027981980 33255.0
38.038848420 31553.0
38.049714860 29832.0
38.060581300 28312.0
38.071447740 27058.0
38.082314180 25247.0
38.093180620 24190.0
38.104047060 22888.0
38.114913500 21664.0
38.125779940 20432.0
38.136646380 19426.0
38.147512820 18132.0
38.158379260 17647.0
38.169245700 16655.0
38.180112140 16217.0
38.190978580 15428.0
38.201845020 14863.0
38.212711460 14225.0
38.223577900 13516.0
38.234444340 13418.0
38.245310780 13127.0
38.256177220 12460.0
38.267043660 12378.0
38.277910100 12037.0
38.288776540 11978.0
38.299642980 11545.0
38.310509420 11367.0
38.321375860 11004.0
38.332242300 10862.0
38.343108740 10578.0
38.353975180 10624.0
38.364841620 10386.0
38.375708060 10172.0
38.386574500 10025.0
38.397440940 10172.0
38.408307380 9780.0
38.419173820 9821.0
38.430040260 9704.0
38.440906700 9702.0
38.451773140 9586.0
38.462639580 9588.0
38.473506020 9470.0
38.484372460 9264.0
38.495238900 9218.0
38.506105340 9282.0
38.516971780 9229.0
38.527838220 9260.0
38.538704660 9187.0
38.549571100 9115.0
38.560437540 8910.0
38.571303980 8872.0
38.582170420 9054.0
38.593036860 8762.0
38.603903300 8729.0
38.614769740 8959.0
38.625636180 8789.0
38.636502620 8916.0
38.647369060 8803.0
38.658235500 9140.0
38.669101940 8978.0
38.679968380 8935.0
38.690834820 8698.0
38.701701260 8902.0
38.712567700 8832.0
38.723434140 8870.0
38.734300580 8684.0
38.745167020 8981.0
38.756033460 8808.0
38.766899900 8601.0
38.777766340 8824.0
38.788632780 8747.0
38.799499220 8898.0
38.810365660 8736.0
38.821232100 8814.0
38.832098540 8871.0
38.842964980 8824.0
38.853831420 8849.0
38.864697860 8862.0
38.875564300 9080.0
38.886430740 8921.0
38.897297180 9090.0
38.908163620 9005.0
38.919030060 8999.0
38.929896500 8908.0
38.940762940 9147.0
38.951629380 9057.0
38.962495820 9173.0
38.973362260 8931.0
38.984228700 9138.0
38.995095140 9196.0
39.005961580 8900.0
39.016828020 9037.0
39.027694460 9151.0
39.038560900 9042.0
39.049427340 9118.0
39.060293780 8989.0
39.071160220 9031.0
39.082026660 8900.0
39.092893100 9093.0
39.103759540 9042.0
39.114625980 9013.0
39.125492420 8951.0
39.136358860 9009.0
39.147225300 8592.0
39.158091740 8732.0
39.168958180 8699.0
39.179824620 8900.0
39.190691060 8691.0
39.201557500 8604.0
39.212423940 8792.0
39.223290380 8587.0
39.234156820 8672.0
39.245023260 8461.0
39.255889700 8539.0
39.266756140 8313.0
39.277622580 8605.0
39.288489020 8454.0
39.299355460 8510.0
39.310221900 8751.0
39.321088340 8529.0
39.331954780 8568.0
39.342821220 8456.0
39.353687660 8456.0
39.364554100 8315.0
39.375420540 8335.0
39.386286980 8150.0
39.397153420 8321.0
39.408019860 8350.0
39.418886300 8220.0
39.429752740 8489.0
39.440619180 8343.0
39.451485620 8356.0
39.462352060 8578.0
39.473218500 8227.0
39.484084940 8451.0
39.494951380 8418.0
39.505817820 8419.0
39.516684260 8322.0
39.527550700 8235.0
39.538417140 8322.0
39.549283580 8509.0
39.560150020 8286.0
39.571016460 8414.0
39.581882900 8413.0
39.592749340 8513.0
39.603615780 8264.0
39.614482220 8443.0
39.625348660 8245.0
39.636215100 8423.0
39.647081540 8482.0
39.657947980 8526.0
39.668814420 8581.0
39.679680860 8714.0
39.690547300 8599.0
39.701413740 8829.0
39.712280180 8623.0
39.723146620 8848.0
39.734013060 8783.0
39.744879500 9189.0
39.755745940 9136.0
39.766612380 9438.0
39.777478820 9503.0
39.788345260 9757.0
39.799211700 9904.0
39.810078140 10043.0
39.820944580 10185.0
39.831811020 10407.0
39.842677460 10663.0
39.853543900 10951.0
39.864410340 10839.0
39.875276780 11098.0
39.886143220 11206.0
39.897009660 11024.0
39.907876100 11017.0
39.918742540 10953.0
39.929608980 10713.0
39.940475420 10748.0
39.951341860 10547.0
39.962208300 10418.0
39.973074740 10592.0
39.983941180 10139.0
39.994807620 9854.0
